   1.0937167e+00   1.0888216e+00   1.0772065e+00   1.0590571e+00   1.0346657e+00   1.0042501e+00   9.6845929e-01   9.2805412e-01   8.8377311e-01   8.3633257e-01   7.8642628e-01   7.3472120e-01   6.8185753e-01   6.2845049e-01   5.7509030e-01   5.2234219e-01   4.7074643e-01   4.2081829e-01   3.7304805e-01   3.2789253e-01   2.8563007e-01   2.4639724e-01   2.1030331e-01   1.7743224e-01   1.4783858e-01   1.2155044e-01   9.8569665e-02   7.8871867e-02   6.2406390e-02   4.9096324e-02   3.8838507e-02   3.1503520e-02   2.6935689e-02   2.4953828e-02   2.5352986e-02   2.7902693e-02   3.2346733e-02   3.8403142e-02   4.5777265e-02   5.4299683e-02   6.3738346e-02   7.3846590e-02   8.4398705e-02   9.5189927e-02   1.0603544e-01   1.1677036e-01   1.2725046e-01   1.3735180e-01   1.4697079e-01   1.5602413e-01   1.6444886e-01   1.7220232e-01   1.7926218e-01   1.8562643e-01   1.9131335e-01   1.9636160e-01   2.0083036e-01   2.0475125e-01   2.0814747e-01   2.1107521e-01   2.1358743e-01   2.1573384e-01   2.1756098e-01   2.1911215e-01   2.2042741e-01   2.2154363e-01   2.2249446e-01   2.2331030e-01   2.2401837e-01   2.2464265e-01   2.2520390e-01   2.2571966e-01   2.2620426e-01   2.2666882e-01   2.2712120e-01   2.2756671e-01   2.2801920e-01   2.2848517e-01   2.2896654e-01   2.2946519e-01   2.2998295e-01   2.3052160e-01   2.3108291e-01   2.3166859e-01   2.3228030e-01   2.3291967e-01   2.3358831e-01   2.3428777e-01   2.3501956e-01   2.3578515e-01   2.3658599e-01   2.3742346e-01   2.3829893e-01   2.3921371e-01   2.4016908e-01   2.4116629e-01   2.4220652e-01   2.4329093e-01   2.4442066e-01   2.4559677e-01   2.4682032e-01   2.4809229e-01   2.4941366e-01   2.5078534e-01   2.5220823e-01   2.5368316e-01   2.5521093e-01   2.5679232e-01   2.5842805e-01   2.6011880e-01   2.6186523e-01   2.6366673e-01   2.6552264e-01   2.6743441e-01   2.6940337e-01   2.7143070e-01   2.7351749e-01   2.7566471e-01   2.7787323e-01   2.8014379e-01   2.8247705e-01   2.8487352e-01   2.8733365e-01   2.8985773e-01   2.9244597e-01   2.9509847e-01   2.9781520e-01   3.0059603e-01   3.0344074e-01   3.0634897e-01   3.0932026e-01   3.1235404e-01   3.1544964e-01   3.1860626e-01   3.2182302e-01   3.2509889e-01   3.2843276e-01   3.3182340e-01   3.3526948e-01   3.3876953e-01   3.4232201e-01   3.4592524e-01   3.4957745e-01   3.5327674e-01   3.5702111e-01   3.6080846e-01   3.6463656e-01   3.6850308e-01   3.7240559e-01   3.7634152e-01   3.8030823e-01   3.8430294e-01   3.8832277e-01   3.9236461e-01   3.9642512e-01   4.0050100e-01   4.0458888e-01   4.0868523e-01   4.1278642e-01   4.1688869e-01   4.2098815e-01   4.2508080e-01   4.2916252e-01   4.3322905e-01   4.3727604e-01   4.4129898e-01   4.4529326e-01   4.4925415e-01   4.5317680e-01   4.5705621e-01   4.6088729e-01   4.6466691e-01   4.6840112e-01   4.7208551e-01   4.7571397e-01   4.7928059e-01   4.8277961e-01   4.8620550e-01   4.8955287e-01   4.9281654e-01   4.9599151e-01   4.9907297e-01   5.0205627e-01   5.0493698e-01   5.0771083e-01   5.1037373e-01   5.1292272e-01   5.1536208e-01   5.1768808e-01   5.1989509e-01   5.2197789e-01   5.2393175e-01   5.2575240e-01   5.2743599e-01   5.2897918e-01   5.3037904e-01   5.3163312e-01   5.3273944e-01   5.3369644e-01   5.3450306e-01   5.3515866e-01   5.3566309e-01   5.3601593e-01   5.3621559e-01   5.3626154e-01   5.3615350e-01   5.3589138e-01   5.3547527e-01   5.3490546e-01   5.3418243e-01   5.3330685e-01   5.3227956e-01   5.3110163e-01   5.2977428e-01   5.2829896e-01   5.2667726e-01   5.2491101e-01   5.2300221e-01   5.2095300e-01   5.1876577e-01   5.1644310e-01   5.1398776e-01   5.1140274e-01   5.0869120e-01   5.0585649e-01   5.0290214e-01   4.9983191e-01   4.9664971e-01   4.9335967e-01   4.8996608e-01   4.8647346e-01   4.8288636e-01   4.7920174e-01   4.7542067e-01   4.7154901e-01   4.6759256e-01   4.6355700e-01   4.5944790e-01   4.5527076e-01   4.5103096e-01   4.4673379e-01   4.4238443e-01   4.3798798e-01   4.3354944e-01   4.2907368e-01   4.2456552e-01   4.2002963e-01   4.1547062e-01   4.1089299e-01   4.0630113e-01   4.0169935e-01   3.9709185e-01   3.9248280e-01   3.8787616e-01   3.8327568e-01   3.7868498e-01   3.7410758e-01   3.6954690e-01   3.6500622e-01   3.6048874e-01   3.5599753e-01   3.5153555e-01   3.4710567e-01   3.4271062e-01   3.3835304e-01   3.3403546e-01   3.2976028e-01   3.2552981e-01   3.2134624e-01   3.1721166e-01   3.1312804e-01   3.0909723e-01   3.0512098e-01   3.0120094e-01   2.9733864e-01   2.9353549e-01   2.8979281e-01   2.8611178e-01   2.8249351e-01   2.7893896e-01   2.7544900e-01   2.7202438e-01   2.6866576e-01   2.6537367e-01   2.6214853e-01   2.5899066e-01   2.5590034e-01   2.5288072e-01   2.4993871e-01   2.4707324e-01   2.4428280e-01   2.4156590e-01   2.3892108e-01   2.3634693e-01   2.3384204e-01   2.3140506e-01   2.2903464e-01   2.2672950e-01   2.2448835e-01   2.2230995e-01   2.2019310e-01   2.1813661e-01   2.1613933e-01   2.1420015e-01   2.1231798e-01   2.1049174e-01   2.0872043e-01   2.0700304e-01   2.0533860e-01   2.0372617e-01   2.0216486e-01   2.0065378e-01   1.9919210e-01   1.9777898e-01   1.9641366e-01   1.9509538e-01   1.9382334e-01   1.9259600e-01   1.9141243e-01   1.9027191e-01   1.8917367e-01   1.8811686e-01   1.8710060e-01   1.8612394e-01   1.8518587e-01   1.8428531e-01   1.8342115e-01   1.8259220e-01   1.8179722e-01   1.8103490e-01   1.8030390e-01   1.7960278e-01   1.7893009e-01   1.7828427e-01   1.7766375e-01   1.7706688e-01   1.7649193e-01   1.7593716e-01   1.7540086e-01   1.7488182e-01   1.7437832e-01   1.7388907e-01   1.7341339e-01   1.7295119e-01   1.7250296e-01   1.7206978e-01   1.7165333e-01   1.7125587e-01   1.7088026e-01   1.7052996e-01   1.7020867e-01   1.6992018e-01   1.6966996e-01   1.6946326e-01   1.6930494e-01   1.6919940e-01   1.6915068e-01   1.6916238e-01   1.6923770e-01   1.6937943e-01   1.6958994e-01   1.6987120e-01   1.7022459e-01   1.7064855e-01   1.7113844e-01   1.7168768e-01   1.7228781e-01   1.7292846e-01   1.7359738e-01   1.7428039e-01   1.7496146e-01   1.7562261e-01   1.7624355e-01   1.7679699e-01   1.7725820e-01   1.7761082e-01   1.7784721e-01   1.7796479e-01   1.7796624e-01   1.7785910e-01   1.7764607e-01   1.7733086e-01   1.7692097e-01   1.7642586e-01   1.7585693e-01   1.7522510e-01   1.7454487e-01   1.7383142e-01   1.7309871e-01   1.7235949e-01   1.7162532e-01   1.7090657e-01   1.7021238e-01   1.6955072e-01   1.6892834e-01   1.6835078e-01   1.6782240e-01   1.6734635e-01   1.6692469e-01   1.6655892e-01   1.6624869e-01   1.6599293e-01   1.6579017e-01   1.6563851e-01   1.6553564e-01   1.6547883e-01   1.6546493e-01   1.6549037e-01   1.6555116e-01   1.6564291e-01   1.6576080e-01   1.6589957e-01   1.6605404e-01   1.6622041e-01   1.6639437e-01   1.6657198e-01   1.6674977e-01   1.6692474e-01   1.6709437e-01   1.6725657e-01   1.6740977e-01   1.6755283e-01   1.6768510e-01   1.6780639e-01   1.6791697e-01   1.6801760e-01   1.6810894e-01   1.6819148e-01   1.6826630e-01   1.6833447e-01   1.6839695e-01   1.6845467e-01   1.6850845e-01   1.6855906e-01   1.6860722e-01   1.6865354e-01   1.6869859e-01   1.6874288e-01   1.6878681e-01   1.6883074e-01   1.6887497e-01   1.6891970e-01   1.6896510e-01   1.6901122e-01   1.6905812e-01   1.6910602e-01   1.6915498e-01   1.6920505e-01   1.6925627e-01   1.6930867e-01   1.6936227e-01   1.6941711e-01   1.6947322e-01   1.6953060e-01   1.6958929e-01   1.6964929e-01   1.6971063e-01   1.6977331e-01   1.6983734e-01   1.6990272e-01   1.6996947e-01   1.7003757e-01   1.7010703e-01   1.7017784e-01   1.7024999e-01   1.7032346e-01   1.7039826e-01   1.7047434e-01   1.7055171e-01   1.7063034e-01   1.7071019e-01   1.7079126e-01   1.7087354e-01   1.7095853e-01   1.7104758e-01   1.7114009e-01   1.7123556e-01   1.7133349e-01   1.7143349e-01   1.7153520e-01   1.7163832e-01   1.7174262e-01   1.7184791e-01   1.7195407e-01   1.7206103e-01   1.7216880e-01   1.7227742e-01   1.7238700e-01   1.7249770e-01   1.7260976e-01   1.7272345e-01   1.7283912e-01   1.7295715e-01   1.7307802e-01   1.7320223e-01   1.7333036e-01   1.7346303e-01   1.7360093e-01   1.7374481e-01   1.7389547e-01   1.7405378e-01   1.7422065e-01   1.7439705e-01   1.7458403e-01   1.7478268e-01   1.7499417e-01   1.7521982e-01   1.7546091e-01   1.7571877e-01   1.7599481e-01   1.7629048e-01   1.7660732e-01   1.7694691e-01   1.7731091e-01   1.7770105e-01   1.7811909e-01   1.7856690e-01   1.7904638e-01   1.7955951e-01   1.8010833e-01   1.8069494e-01   1.8132150e-01   1.8199026e-01   1.8269802e-01   1.8343493e-01   1.8420753e-01   1.8502294e-01   1.8588788e-01   1.8680875e-01   1.8779157e-01   1.8884200e-01   1.8996534e-01   1.9116654e-01   1.9245017e-01   1.9382047e-01   1.9528130e-01   1.9683615e-01   1.9848819e-01   2.0024018e-01   2.0209457e-01   2.0405341e-01   2.0611840e-01   2.0829091e-01   2.1057191e-01   2.1296202e-01   2.1546142e-01   2.1806997e-01   2.2078723e-01   2.2361238e-01   2.2654426e-01   2.2958132e-01   2.3272165e-01   2.3596298e-01   2.3930268e-01   2.4273774e-01   2.4626479e-01   2.4988011e-01   2.5357958e-01   2.5735876e-01   2.6121280e-01   2.6513651e-01   2.6912433e-01   2.7317034e-01   2.7726825e-01   2.8141139e-01   2.8559275e-01   2.8980494e-01   2.9404020e-01   2.9829042e-01   3.0254712e-01   3.0680144e-01   3.1104417e-01   3.1526573e-01   3.1945848e-01   3.2362474e-01   3.2775030e-01   3.3181850e-01   3.3581342e-01   3.3971982e-01   3.4352321e-01   3.4720979e-01   3.5076648e-01   3.5418091e-01   3.5744138e-01   3.6053694e-01   3.6345733e-01   3.6619305e-01   3.6873526e-01   3.7107587e-01   3.7320749e-01   3.7512344e-01   3.7681775e-01   3.7828518e-01   3.7952117e-01   3.8052192e-01   3.8128430e-01   3.8180591e-01   3.8208507e-01   3.8212080e-01   3.8191284e-01   3.8146165e-01   3.8076839e-01   3.7983494e-01   3.7866519e-01   3.7728592e-01   3.7568612e-01   3.7385616e-01   3.7180492e-01   3.6953894e-01   3.6706484e-01   3.6439023e-01   3.6152346e-01   3.5847354e-01   3.5525025e-01   3.5186405e-01   3.4832614e-01   3.4464841e-01   3.4084115e-01   3.3690438e-01   3.3285058e-01   3.2869414e-01   3.2444897e-01   3.2012852e-01   3.1574577e-01   3.1131325e-01   3.0684304e-01   3.0234673e-01   2.9783546e-01   2.9331992e-01   2.8881035e-01   2.8431649e-01   2.7984765e-01   2.7541264e-01   2.7101983e-01   2.6667713e-01   2.6239199e-01   2.5817139e-01   2.5402187e-01   2.4994948e-01   2.4595983e-01   2.4205808e-01   2.3824889e-01   2.3453651e-01   2.3092468e-01   2.2741673e-01   2.2401549e-01   2.2072334e-01   2.1754221e-01   2.1447356e-01   2.1151840e-01   2.0867726e-01   2.0595023e-01   2.0333693e-01   2.0083653e-01   1.9844772e-01   1.9616874e-01   1.9399738e-01   1.9193095e-01   1.8996632e-01   1.8809969e-01   1.8632383e-01   1.8463809e-01   1.8304352e-01   1.8153988e-01   1.8012578e-01   1.7879874e-01   1.7755509e-01   1.7638995e-01   1.7529722e-01   1.7426962e-01   1.7329865e-01   1.7237461e-01   1.7148658e-01   1.7062246e-01   1.6976893e-01   1.6891147e-01   1.6803434e-01   1.6712062e-01   1.6615217e-01   1.6510963e-01   1.6397248e-01   1.6271896e-01   1.6137741e-01   1.5992744e-01   1.5828776e-01   1.5638794e-01   1.5416843e-01   1.5158056e-01   1.4858653e-01   1.4515944e-01   1.4128324e-01   1.3695279e-01   1.3217381e-01   1.2696290e-01   1.2134755e-01   1.1536610e-01   1.0906780e-01   1.0251281e-01   9.5772242e-02   8.8927870e-02   8.2072315e-02   7.5309097e-02   6.8752630e-02   6.2528222e-02   5.6661772e-02   5.1184577e-02   4.6422764e-02   4.2686021e-02   4.0259734e-02   3.9404993e-02   4.0358584e-02   4.3332995e-02   4.8516411e-02   5.6072719e-02   6.6141504e-02   7.8838052e-02   9.4253347e-02   1.1245407e-01   1.3348261e-01   1.5735706e-01   1.8407118e-01   2.1359447e-01   2.4587210e-01   2.8082496e-01   3.1834964e-01   3.5831840e-01   4.0057924e-01   4.4495583e-01   4.9124741e-01   5.3922418e-01   5.8837279e-01   6.3788457e-01   6.8698009e-01   7.3491414e-01   7.8097579e-01   8.2448829e-01   8.6480916e-01   9.0133014e-01   9.3347724e-01   9.6071065e-01   9.8252484e-01   9.9844850e-01   1.0080446e+00   1.0110708e+00   1.0094013e+00   1.0026078e+00   9.8967053e-01   9.7001526e-01   9.4351308e-01   9.1048047e-01   8.7167927e-01   8.2831668e-01   7.8204529e-01   7.3496306e-01   6.8905984e-01   6.4173828e-01   5.9253167e-01   5.4186227e-01   4.9013495e-01   4.3773720e-01   3.8503910e-01   3.3239338e-01   2.8013536e-01   2.2858297e-01   1.7803677e-01   1.2878937e-01   8.1121501e-02   3.5207303e-02  -8.8044555e-03  -5.0780694e-02  -9.0604021e-02  -1.2817273e-01  -1.6340080e-01  -1.9621790e-01  -2.2656940e-01  -2.5441632e-01  -2.7973540e-01  -3.0251906e-01  -3.2277540e-01  -3.4052822e-01  -3.5581699e-01  -3.6869688e-01  -3.7923873e-01  -3.8752882e-01  -3.9366873e-01  -3.9777619e-01  -3.9998424e-01  -4.0037048e-01  -3.9895521e-01  -3.9591542e-01  -3.9142579e-01  -3.8565323e-01  -3.7875687e-01  -3.7088807e-01  -3.6219041e-01  -3.5279971e-01  -3.4284400e-01  -3.3244356e-01  -3.2171184e-01  -3.1075373e-01  -2.9966609e-01  -2.8853863e-01  -2.7745389e-01  -2.6648729e-01  -2.5570708e-01  -2.4517437e-01  -2.3494311e-01  -2.2506011e-01  -2.1556502e-01  -2.0649035e-01  -1.9786146e-01  -1.8969654e-01  -1.8200666e-01  -1.7479716e-01  -1.6807422e-01  -1.6183146e-01  -1.5604047e-01  -1.5067450e-01  -1.4570900e-01  -1.4112163e-01  -1.3689230e-01  -1.3300307e-01  -1.2943825e-01  -1.2618436e-01  -1.2323012e-01  -1.2056646e-01  -1.1818662e-01  -1.1608354e-01  -1.1423887e-01  -1.1263230e-01  -1.1124414e-01  -1.1005526e-01  -1.0904712e-01  -1.0820177e-01  -1.0750182e-01  -1.0693050e-01  -1.0647159e-01  -1.0610946e-01  -1.0582909e-01  -1.0561601e-01  -1.0545635e-01  -1.0533279e-01  -1.0522340e-01  -1.0511504e-01  -1.0499679e-01  -1.0485970e-01  -1.0469681e-01  -1.0450312e-01  -1.0427562e-01  -1.0400980e-01  -1.0368835e-01  -1.0330507e-01  -1.0285627e-01  -1.0233905e-01  -1.0175131e-01  -1.0109174e-01  -1.0035983e-01  -9.9555879e-02  -9.8680963e-02  -9.7736972e-02  -9.6724109e-02  -9.5641695e-02  -9.4493050e-02  -9.3281425e-02  -9.2009943e-02  -9.0681604e-02  -8.9299280e-02  -8.7865720e-02  -8.6383546e-02  -8.4855254e-02  -8.3283215e-02  -8.1669675e-02  -8.0016752e-02  -7.8326441e-02  -7.6600610e-02  -7.4841002e-02  -7.3049235e-02  -7.1226799e-02  -6.9375062e-02  -6.7495213e-02  -6.5587131e-02  -6.3649671e-02  -6.1681700e-02  -5.9682088e-02  -5.7649710e-02  -5.5583439e-02  -5.3482156e-02  -5.1344741e-02  -4.9170078e-02  -4.6957055e-02  -4.4704559e-02  -4.2411484e-02  -4.0076725e-02  -3.7699179e-02  -3.5277746e-02  -3.2811330e-02  -3.0298837e-02  -2.7739632e-02  -2.5134010e-02  -2.2481458e-02  -1.9781404e-02  -1.7033301e-02  -1.4236665e-02  -1.1391072e-02  -8.4961615e-03  -5.5516352e-03  -2.5572558e-03   4.8715115e-04   3.5816986e-03   6.7264372e-03   9.9213558e-03   1.3166381e-02   1.6461378e-02   1.9806148e-02   2.3200434e-02   2.6643912e-02   3.0136201e-02   3.3676854e-02   3.7265365e-02   4.0901185e-02   4.4583771e-02   4.8312490e-02   5.2086649e-02   5.5905504e-02   5.9768255e-02   6.3674046e-02   6.7621970e-02   7.1611061e-02   7.5640303e-02   7.9708623e-02   8.3814893e-02   8.7957932e-02   9.2136504e-02   9.6349318e-02   1.0059503e-01   1.0487224e-01   1.0917949e-01   1.1351528e-01   1.1787804e-01   1.2226615e-01   1.2667795e-01   1.3111170e-01   1.3556563e-01   1.4003789e-01   1.4452661e-01   1.4902983e-01   1.5354555e-01   1.5807173e-01   1.6260625e-01   1.6714698e-01   1.7169174e-01   1.7623823e-01   1.8078411e-01   1.8532700e-01   1.8986446e-01   1.9439399e-01   1.9891305e-01   2.0341904e-01   2.0791136e-01   2.1239130e-01   2.1685558e-01   2.2130085e-01   2.2572378e-01   2.3012111e-01   2.3448964e-01   2.3882620e-01   2.4312770e-01   2.4739109e-01   2.5161338e-01   2.5579163e-01   2.5992295e-01   2.6400452e-01   2.6803355e-01   2.7200732e-01   2.7592316e-01   2.7977847e-01   2.8357067e-01   2.8729725e-01   2.9095577e-01   2.9454383e-01   2.9805907e-01   3.0149921e-01   3.0486200e-01   3.0814527e-01   3.1134689e-01   3.1446476e-01   3.1749689e-01   3.2044132e-01   3.2329617e-01   3.2605960e-01   3.2872983e-01   3.3130514e-01   3.3378386e-01   3.3616438e-01   3.3844514e-01   3.4062463e-01   3.4270143e-01   3.4467414e-01   3.4654142e-01   3.4830201e-01   3.4995469e-01   3.5149828e-01   3.5293169e-01   3.5425387e-01   3.5546381e-01   3.5656059e-01   3.5754331e-01   3.5841116e-01   3.5916336e-01   3.5979920e-01   3.6031802e-01   3.6071922e-01   3.6100225e-01   3.6116663e-01   3.6121192e-01   3.6113774e-01   3.6094378e-01   3.6062976e-01   3.6019549e-01   3.5963837e-01   3.5895566e-01   3.5814916e-01   3.5722072e-01   3.5617220e-01   3.5500546e-01   3.5372242e-01   3.5232498e-01   3.5081505e-01   3.4919458e-01   3.4746552e-01   3.4562984e-01   3.4368952e-01   3.4164657e-01   3.3950299e-01   3.3726081e-01   3.3492207e-01   3.3248885e-01   3.2996307e-01   3.2734675e-01   3.2464196e-01   3.2185078e-01   3.1897531e-01   3.1601766e-01   3.1297994e-01   3.0986429e-01   3.0667284e-01   3.0340775e-01   3.0007117e-01   2.9666527e-01   2.9319223e-01   2.8965426e-01   2.8605353e-01   2.8239228e-01   2.7867271e-01   2.7489708e-01   2.7106761e-01   2.6718656e-01   2.6325619e-01   2.5927879e-01   2.5525664e-01   2.5119203e-01   2.4708727e-01   2.4294467e-01   2.3876657e-01   2.3455529e-01   2.3031320e-01   2.2604265e-01   2.2174600e-01   2.1742563e-01   2.1308395e-01   2.0872334e-01   2.0434621e-01   1.9995500e-01   1.9555213e-01   1.9114004e-01   1.8672119e-01   1.8229804e-01   1.7787306e-01   1.7344875e-01   1.6902760e-01   1.6461213e-01   1.6020485e-01   1.5580830e-01   1.5142501e-01   1.4705753e-01   1.4271359e-01   1.3840736e-01   1.3413439e-01   1.2989095e-01   1.2567540e-01   1.2148814e-01   1.1733168e-01   1.1321058e-01   1.0912897e-01   1.0508778e-01   1.0108555e-01   9.7122777e-02   9.3200368e-02   8.9319219e-02   8.5480189e-02   8.1684116e-02   7.7931799e-02   7.4224004e-02   7.0561466e-02   6.6944890e-02   6.3374951e-02   5.9852294e-02   5.6377535e-02   5.2951256e-02   4.9574013e-02   4.6246331e-02   4.2968702e-02   3.9741591e-02   3.6565431e-02   3.3440627e-02   3.0367552e-02   2.7346548e-02   2.4377929e-02   2.1461979e-02   1.8598948e-02   1.5789061e-02   1.3032510e-02   1.0329457e-02   7.6800335e-03   5.0843423e-03   2.5424550e-03   5.4413115e-05  -2.3797718e-03  -4.7601184e-03  -7.0866756e-03  -9.3595225e-03  -1.1578768e-02  -1.3744552e-02  -1.5857058e-02  -1.7916546e-02  -1.9923230e-02  -2.1877342e-02  -2.3779147e-02  -2.5628940e-02  -2.7427047e-02  -2.9173825e-02  -3.0869662e-02  -3.2514977e-02  -3.4110221e-02  -3.5655873e-02  -3.7152445e-02  -3.8600482e-02  -4.0000555e-02  -4.1353270e-02  -4.2659263e-02  -4.3919199e-02  -4.5133777e-02  -4.6303725e-02  -4.7429803e-02  -4.8512800e-02  -4.9553539e-02  -5.0552871e-02  -5.1511679e-02  -5.2430879e-02  -5.3311414e-02  -5.4154262e-02  -5.4960428e-02  -5.5730952e-02  -5.6466901e-02  -5.7169377e-02  -5.7839509e-02  -5.8478459e-02  -5.9087421e-02  -5.9667618e-02  -6.0220258e-02  -6.0744112e-02  -6.1238585e-02  -6.1704339e-02  -6.2142024e-02  -6.2552281e-02  -6.2935741e-02  -6.3293021e-02  -6.3624752e-02  -6.3931618e-02  -6.4214305e-02  -6.4473491e-02  -6.4709848e-02  -6.4924042e-02  -6.5116731e-02  -6.5288570e-02  -6.5440203e-02  -6.5572270e-02  -6.5685405e-02  -6.5780235e-02  -6.5857379e-02  -6.5917451e-02  -6.5961058e-02  -6.5988802e-02  -6.6001276e-02  -6.5999069e-02  -6.5982760e-02  -6.5952926e-02  -6.5910135e-02  -6.5854948e-02  -6.5787921e-02  -6.5709602e-02  -6.5620534e-02  -6.5521252e-02  -6.5412287e-02  -6.5294161e-02  -6.5167390e-02  -6.5032484e-02  -6.4889947e-02  -6.4740275e-02  -6.4583960e-02  -6.4421484e-02  -6.4253326e-02  -6.4079956e-02  -6.3901839e-02  -6.3719389e-02  -6.3532875e-02  -6.3342590e-02  -6.3148814e-02  -6.2951805e-02  -6.2751804e-02  -6.2549031e-02  -6.2343687e-02  -6.2135953e-02  -6.1925990e-02  -6.1713940e-02  -6.1499926e-02  -6.1284051e-02  -6.1066398e-02  -6.0847030e-02  -6.0625993e-02  -6.0403309e-02  -6.0178984e-02  -5.9953004e-02  -5.9725334e-02  -5.9495921e-02  -5.9264691e-02  -5.9031551e-02  -5.8796388e-02  -5.8559237e-02  -5.8323441e-02  -5.8090248e-02  -5.7859501e-02  -5.7631033e-02  -5.7404669e-02  -5.7180226e-02  -5.6957508e-02  -5.6736315e-02  -5.6516434e-02  -5.6297646e-02  -5.6079719e-02  -5.5862417e-02  -5.5645490e-02  -5.5429015e-02  -5.5213124e-02  -5.4997558e-02  -5.4782078e-02  -5.4566467e-02  -5.4350527e-02  -5.4134081e-02  -5.3916973e-02  -5.3699069e-02  -5.3480255e-02  -5.3260436e-02  -5.3039540e-02  -5.2817516e-02  -5.2594332e-02  -5.2369978e-02  -5.2144464e-02  -5.1917822e-02  -5.1690104e-02  -5.1461382e-02  -5.1231751e-02  -5.1001324e-02  -5.0770237e-02  -5.0538646e-02  -5.0306728e-02  -5.0074679e-02  -4.9842719e-02  -4.9611087e-02  -4.9380042e-02  -4.9149865e-02  -4.8920858e-02  -4.8693343e-02  -4.8467616e-02  -4.8243820e-02  -4.8022872e-02  -4.7805704e-02  -4.7593083e-02  -4.7385616e-02  -4.7183746e-02  -4.6987751e-02  -4.6797751e-02  -4.6613698e-02  -4.6435384e-02  -4.6262438e-02  -4.6094326e-02  -4.5930352e-02  -4.5769654e-02  -4.5611211e-02  -4.5453837e-02  -4.5296188e-02  -4.5137006e-02  -4.4973846e-02  -4.4803575e-02  -4.4622998e-02  -4.4429287e-02  -4.4219685e-02  -4.3991495e-02  -4.3742080e-02  -4.3468867e-02  -4.3169342e-02  -4.2841050e-02  -4.2481602e-02  -4.2088666e-02  -4.1659972e-02  -4.1193312e-02  -4.0686538e-02  -4.0137562e-02  -3.9545299e-02  -3.8910034e-02  -3.8230940e-02  -3.7508073e-02  -3.6742443e-02  -3.5936012e-02  -3.5091700e-02  -3.4213376e-02  -3.3305866e-02  -3.2374948e-02  -3.1427356e-02  -3.0470775e-02  -2.9513846e-02  -2.8566162e-02  -2.7638272e-02  -2.6741663e-02  -2.5886246e-02  -2.5082697e-02  -2.4342185e-02  -2.3674252e-02  -2.3086811e-02  -2.2586151e-02  -2.2176934e-02  -2.1862195e-02  -2.1643342e-02  -2.1520156e-02  -2.1490794e-02  -2.1551783e-02  -2.1698025e-02  -2.1922795e-02  -2.2217743e-02  -2.2572889e-02  -2.2976629e-02  -2.3418031e-02  -2.3891794e-02  -2.4387926e-02  -2.4896675e-02  -2.5409027e-02  -2.5916712e-02  -2.6412195e-02  -2.6888684e-02  -2.7340126e-02  -2.7761209e-02  -2.8147361e-02  -2.8494749e-02  -2.8800279e-02  -2.9061601e-02  -2.9277101e-02  -2.9445906e-02  -2.9567885e-02  -2.9643635e-02  -2.9672556e-02  -2.9655014e-02  -2.9592999e-02  -2.9488602e-02  -2.9344012e-02  -2.9161517e-02  -2.8943505e-02  -2.8692462e-02  -2.8410975e-02  -2.8101726e-02  -2.7767501e-02  -2.7411181e-02  -2.7035750e-02  -2.6644287e-02  -2.6239972e-02  -2.5826086e-02  -2.5406005e-02  -2.4983207e-02  -2.4560668e-02  -2.4139699e-02  -2.3721490e-02  -2.3307068e-02  -2.2897302e-02  -2.2493975e-02  -2.2107588e-02  -2.1739646e-02  -2.1388767e-02  -2.1053421e-02  -2.0731932e-02  -2.0422478e-02  -2.0123090e-02  -1.9831654e-02  -1.9545908e-02  -1.9263444e-02  -1.8981708e-02  -1.8698000e-02  -1.8409774e-02  -1.8115474e-02  -1.7813173e-02  -1.7500938e-02  -1.7176884e-02  -1.6839174e-02  -1.6486020e-02  -1.6115681e-02  -1.5726464e-02  -1.5316724e-02  -1.4884866e-02  -1.4429340e-02  -1.3948646e-02  -1.3441333e-02  -1.2905994e-02  -1.2341274e-02  -1.1745865e-02  -1.1118506e-02  -1.0457986e-02  -9.7631021e-03  -9.0325248e-03  -8.2650326e-03  -7.4594382e-03  -6.6145722e-03  -5.7292828e-03  -4.8024357e-03  -3.8329146e-03  -2.8196205e-03  -1.7614724e-03  -6.5740659e-04   4.9362267e-04   1.6926436e-03   2.9406667e-03   4.2386849e-03   5.5876734e-03   6.9885897e-03   8.4423737e-03   9.9499476e-03   1.1512216e-02   1.3130066e-02   1.4804366e-02   1.6535969e-02   1.8325708e-02   2.0174399e-02   2.2082852e-02   2.4051856e-02   2.6082170e-02   2.8174534e-02   3.0329673e-02   3.2548292e-02   3.4831082e-02   3.7178715e-02   3.9591844e-02   4.2071108e-02   4.4617127e-02   4.7230504e-02   4.9911825e-02   5.2661658e-02   5.5480555e-02   5.8369050e-02   6.1327659e-02   6.4356883e-02   6.7457204e-02   7.0629087e-02   7.3872979e-02   7.7189312e-02   8.0578498e-02   8.4040935e-02   8.7577000e-02   9.1187056e-02   9.4871447e-02   9.8630500e-02   1.0246452e-01   1.0637381e-01   1.1035864e-01   1.1441927e-01   1.1855594e-01   1.2276622e-01   1.2704237e-01   1.3137691e-01   1.3576247e-01   1.4019174e-01   1.4465751e-01   1.4915264e-01   1.5367015e-01   1.5820314e-01   1.6274474e-01   1.6728819e-01   1.7182677e-01   1.7635389e-01   1.8086304e-01   1.8534778e-01   1.8980179e-01   1.9421882e-01   1.9859271e-01   2.0291741e-01   2.0718692e-01   2.1139536e-01   2.1553695e-01   2.1960596e-01   2.2359678e-01   2.2750388e-01   2.3132183e-01   2.3504526e-01   2.3866893e-01   2.4218766e-01   2.4559637e-01   2.4889006e-01   2.5206385e-01   2.5511290e-01   2.5803251e-01   2.6081803e-01   2.6346493e-01   2.6596874e-01   2.6832511e-01   2.7052975e-01   2.7257849e-01   2.7446723e-01   2.7619195e-01   2.7774875e-01   2.7913379e-01   2.8034334e-01   2.8137374e-01   2.8222145e-01   2.8288298e-01   2.8335497e-01   2.8363412e-01   2.8371722e-01   2.8360117e-01   2.8328269e-01   2.8275802e-01   2.8203072e-01   2.8110590e-01   2.7998871e-01   2.7868433e-01   2.7719795e-01   2.7553475e-01   2.7369998e-01   2.7169888e-01   2.6953670e-01   2.6721874e-01   2.6475029e-01   2.6213667e-01   2.5938322e-01   2.5649531e-01   2.5347830e-01   2.5033759e-01   2.4707861e-01   2.4370678e-01   2.4022756e-01   2.3664642e-01   2.3296885e-01   2.2920037e-01   2.2534651e-01   2.2141280e-01   2.1740483e-01   2.1332818e-01   2.0918845e-01   2.0499127e-01   2.0074229e-01   1.9644717e-01   1.9211159e-01   1.8774125e-01   1.8334187e-01   1.7891920e-01   1.7447899e-01   1.7002702e-01   1.6556908e-01   1.6111100e-01   1.5665861e-01   1.5221776e-01   1.4779432e-01   1.4339420e-01   1.3902329e-01   1.3468753e-01   1.3039287e-01   1.2614523e-01   1.2195057e-01   1.1781486e-01   1.1374412e-01   1.0974437e-01   1.0582164e-01   1.0197859e-01   9.8208897e-02   9.4513960e-02   9.0895710e-02   8.7355915e-02   8.3896179e-02   8.0517946e-02   7.7222497e-02   7.4010951e-02   7.0884263e-02   6.7843230e-02   6.4888484e-02   6.2020494e-02   5.9239569e-02   5.6545855e-02   5.3939336e-02   5.1419834e-02   4.8987008e-02   4.6640357e-02   4.4379216e-02   4.2202757e-02   4.0109994e-02   3.8099783e-02   3.6173462e-02   3.4356804e-02   3.2617930e-02   3.0954418e-02   2.9364363e-02   2.7845660e-02   2.6396042e-02   2.5013086e-02   2.3694204e-02   2.2436649e-02   2.1237515e-02   2.0093734e-02   1.9002076e-02   1.7959154e-02   1.6961419e-02   1.6005160e-02   1.5086508e-02   1.4201440e-02   1.3345766e-02   1.2515132e-02   1.1705023e-02   1.0910764e-02   1.0127520e-02   9.3502967e-03   8.5859640e-03   7.8342645e-03   7.0702783e-03   6.2699468e-03   5.4102479e-03   4.4691965e-03   3.4258441e-03   2.2602791e-03   9.5362644e-04  -5.1195190e-04  -2.1532574e-03  -3.9860545e-03  -6.0250713e-03  -8.2839988e-03  -1.0775491e-02  -1.3511166e-02  -1.6501605e-02  -1.9756350e-02  -2.3283911e-02  -2.7091757e-02  -3.1186321e-02  -3.5573002e-02  -4.0256158e-02  -4.5239114e-02  -5.0524157e-02  -5.6112535e-02  -6.2004463e-02  -6.8200241e-02  -7.4705293e-02  -8.1457227e-02  -8.8373245e-02  -9.5369530e-02  -1.0236128e-01  -1.0926268e-01  -1.1598696e-01  -1.2244633e-01  -1.2855202e-01  -1.3421426e-01  -1.3934230e-01  -1.4384441e-01  -1.4762783e-01  -1.5059885e-01  -1.5266274e-01  -1.5372380e-01  -1.5368533e-01  -1.5244964e-01  -1.4991804e-01  -1.4599086e-01  -1.4056744e-01  -1.3354613e-01  -1.2482428e-01  -1.1429824e-01  -1.0186341e-01  -8.7414144e-02  -7.0843846e-02  -5.2084278e-02  -3.1207835e-02  -8.1441027e-03   1.7173735e-02   4.4786231e-02   7.4707674e-02   1.0692609e-01   1.4140323e-01   1.7807461e-01   2.1684945e-01   2.5761071e-01   3.0021503e-01   3.4449281e-01   3.9024821e-01   4.3725909e-01   4.8527708e-01   5.3402751e-01   5.8320945e-01   6.3249569e-01   6.8153277e-01   7.2994094e-01   7.7731418e-01   8.2322022e-01   8.6727316e-01   9.0909713e-01   9.4823547e-01   9.8427336e-01   1.0168387e+00   1.0456023e+00   1.0702775e+00   1.0906207e+00   1.1064308e+00   1.1175495e+00   1.1238616e+00   1.1252942e+00   1.1218175e+00   1.1134443e+00   1.1002303e+00   1.0822738e+00   1.0597160e+00   1.0327409e+00   1.0015751e+00   9.6648816e-01   9.2779231e-01   8.8584274e-01   8.4103723e-01   7.9381631e-01   7.4466332e-01   6.9410436e-01   6.4270335e-01   5.9066548e-01   5.3815134e-01   4.8547803e-01   4.3294467e-01   3.8083237e-01   3.2940428e-01   2.7890550e-01   2.2956320e-01   1.8158650e-01   1.3516656e-01   9.0476530e-02   4.7671574e-02   6.8888574e-03  -3.1752448e-02  -6.8151163e-02  -1.0222411e-01  -1.3390609e-01  -1.6314991e-01  -1.8992637e-01  -2.1422427e-01  -2.3605038e-01  -2.5542951e-01  -2.7240441e-01  -2.8703586e-01  -2.9940262e-01  -3.0960146e-01  -3.1774714e-01  -3.2395608e-01  -3.2814339e-01  -3.3039151e-01  -3.3085572e-01  -3.2968649e-01  -3.2702950e-01  -3.2302567e-01  -3.1781109e-01  -3.1151710e-01  -3.0427024e-01  -2.9619224e-01  -2.8740007e-01  -2.7800590e-01  -2.6811711e-01  -2.5783630e-01  -2.4726128e-01  -2.3648507e-01  -2.2559588e-01  -2.1467718e-01  -2.0380761e-01  -1.9306103e-01  -1.8250653e-01  -1.7220840e-01  -1.6222613e-01  -1.5261444e-01  -1.4342326e-01  -1.3469773e-01  -1.2647818e-01  -1.1880003e-01  -1.1167560e-01  -1.0508017e-01  -9.8985641e-02  -9.3364589e-02  -8.8190290e-02  -8.3436705e-02  -7.9078487e-02  -7.5090975e-02  -7.1450198e-02  -6.8132874e-02  -6.5116492e-02  -6.2379359e-02  -5.9900372e-02  -5.7659141e-02  -5.5635987e-02  -5.3811950e-02  -5.2168778e-02  -5.0688939e-02  -4.9355612e-02  -4.8152690e-02  -4.7064781e-02  -4.6077206e-02  -4.5176003e-02  -4.4347921e-02  -4.3580424e-02  -4.2861691e-02  -4.2180613e-02  -4.1526799e-02  -4.0890569e-02  -4.0263372e-02  -3.9643450e-02  -3.9029872e-02  -3.8421104e-02  -3.7815466e-02  -3.7211130e-02  -3.6606119e-02  -3.5998309e-02  -3.5385425e-02  -3.4765046e-02  -3.4134604e-02  -3.3491378e-02  -3.2832503e-02  -3.2154965e-02  -3.1455600e-02  -3.0731098e-02  -2.9977998e-02  -2.9192692e-02  -2.8371426e-02  -2.7511519e-02  -2.6609836e-02  -2.5662055e-02  -2.4664185e-02  -2.3612564e-02  -2.2503860e-02  -2.1335069e-02  -2.0103517e-02  -1.8806858e-02  -1.7443077e-02  -1.6010488e-02  -1.4507733e-02  -1.2933784e-02  -1.1287943e-02  -9.5698388e-03  -7.7794328e-03  -5.9170134e-03  -3.9831989e-03  -1.9780925e-03   9.6856017e-05   2.2347262e-03   4.4285898e-03   6.6714730e-03   8.9563556e-03   1.1276172e-02   1.3623809e-02   1.5992111e-02   1.8373871e-02   2.0761842e-02   2.3148727e-02   2.5527185e-02   2.7889827e-02   3.0229220e-02   3.2537884e-02   3.4808294e-02   3.7032878e-02   3.9204186e-02   4.1320225e-02   4.3385780e-02   4.5406396e-02   4.7387999e-02   4.9336893e-02   5.1259766e-02   5.3163684e-02   5.5056093e-02   5.6944820e-02   5.8838074e-02   6.0744440e-02   6.2672888e-02   6.4632766e-02   6.6633802e-02   6.8686106e-02   7.0800166e-02   7.2986660e-02   7.5249790e-02   7.7592042e-02   8.0017030e-02   8.2527780e-02   8.5126725e-02   8.7815707e-02   9.0595977e-02   9.3468194e-02   9.6432427e-02   9.9488151e-02   1.0263425e-01   1.0586902e-01   1.0919017e-01   1.1259481e-01   1.1608118e-01   1.1964646e-01   1.2328630e-01   1.2699643e-01   1.3077260e-01   1.3461064e-01   1.3850644e-01   1.4245594e-01   1.4645513e-01   1.5050007e-01   1.5458685e-01   1.5871165e-01   1.6287068e-01   1.6706022e-01   1.7127661e-01   1.7551622e-01   1.7977552e-01   1.8405127e-01   1.8834165e-01   1.9264572e-01   1.9696482e-01   2.0129723e-01   2.0564072e-01   2.0999311e-01   2.1435232e-01   2.1871635e-01   2.2308326e-01   2.2745121e-01   2.3181845e-01   2.3618329e-01   2.4054412e-01   2.4489942e-01   2.4924777e-01   2.5358778e-01   2.5791813e-01   2.6223678e-01   2.6654175e-01   2.7083114e-01   2.7510300e-01   2.7935542e-01   2.8358644e-01   2.8779408e-01   2.9197639e-01   2.9613135e-01   3.0025696e-01   3.0435120e-01   3.0841203e-01   3.1243740e-01   3.1642524e-01   3.2037348e-01   3.2428002e-01   3.2814276e-01   3.3195963e-01   3.3572865e-01   3.3944778e-01   3.4311499e-01   3.4672824e-01   3.5028553e-01   3.5378485e-01   3.5722419e-01   3.6060157e-01   3.6391500e-01   3.6716250e-01   3.7034210e-01   3.7345185e-01   3.7648979e-01   3.7945399e-01   3.8234249e-01   3.8515339e-01   3.8788475e-01   3.9053467e-01   3.9310124e-01   3.9558257e-01   3.9797678e-01   4.0028201e-01   4.0249640e-01   4.0461806e-01   4.0664515e-01   4.0857579e-01   4.1040816e-01   4.1214040e-01   4.1377070e-01   4.1529723e-01   4.1671817e-01   4.1803174e-01   4.1923657e-01   4.2033229e-01   4.2131854e-01   4.2219501e-01   4.2296144e-01   4.2361761e-01   4.2416337e-01   4.2459858e-01   4.2492320e-01   4.2513720e-01   4.2524063e-01   4.2523356e-01   4.2511613e-01   4.2488853e-01   4.2455099e-01   4.2410379e-01   4.2354727e-01   4.2288181e-01   4.2210785e-01   4.2122586e-01   4.2023638e-01   4.1914000e-01   4.1793734e-01   4.1662909e-01   4.1521597e-01   4.1369878e-01   4.1207833e-01   4.1035552e-01   4.0853128e-01   4.0660657e-01   4.0458245e-01   4.0245997e-01   4.0024028e-01   3.9792455e-01   3.9551409e-01   3.9301025e-01   3.9041436e-01   3.8772782e-01   3.8495207e-01   3.8208862e-01   3.7913901e-01   3.7610485e-01   3.7298780e-01   3.6978958e-01   3.6651195e-01   3.6315675e-01   3.5972583e-01   3.5622113e-01   3.5264463e-01   3.4899837e-01   3.4528444e-01   3.4150498e-01   3.3766219e-01   3.3375832e-01   3.2979567e-01   3.2577661e-01   3.2170354e-01   3.1757893e-01   3.1340530e-01   3.0918523e-01   3.0492133e-01   3.0061629e-01   2.9627284e-01   2.9189377e-01   2.8748193e-01   2.8304020e-01   2.7857154e-01   2.7407895e-01   2.6956548e-01   2.6503424e-01   2.6048840e-01   2.5593118e-01   2.5136584e-01   2.4679410e-01   2.4221316e-01   2.3762490e-01   2.3303168e-01   2.2843581e-01   2.2383956e-01   2.1924515e-01   2.1465477e-01   2.1007055e-01   2.0549453e-01   2.0092866e-01   1.9637496e-01   1.9183537e-01   1.8731181e-01   1.8280614e-01   1.7832018e-01   1.7385571e-01   1.6941443e-01   1.6499802e-01   1.6060812e-01   1.5624630e-01   1.5191408e-01   1.4761296e-01   1.4334437e-01   1.3910970e-01   1.3491029e-01   1.3074743e-01   1.2662237e-01   1.2253631e-01   1.1849039e-01   1.1448573e-01   1.1052337e-01   1.0660432e-01   1.0272955e-01   9.8899972e-02   9.5116442e-02   9.1379783e-02   8.7690763e-02   8.4050107e-02   8.0458489e-02   7.6916536e-02   7.3424829e-02   6.9983898e-02   6.6594231e-02   6.3256262e-02   5.9970383e-02   5.6736934e-02   5.3556211e-02   5.0428460e-02   4.7353881e-02   4.4332625e-02   4.1364797e-02   3.8450452e-02   3.5589582e-02   3.2782124e-02   3.0027981e-02   2.7327008e-02   2.4679013e-02   2.2083752e-02   1.9540938e-02   1.7050231e-02   1.4611246e-02   1.2223548e-02   9.8866545e-03   7.6000354e-03   5.3631892e-03   3.1779964e-03   1.0449373e-03  -1.0367384e-03  -3.0677766e-03  -5.0489199e-03  -6.9809076e-03  -8.8644755e-03  -1.0700356e-02  -1.2490542e-02  -1.4217051e-02  -1.5880836e-02  -1.7501468e-02  -1.9078975e-02  -2.0614055e-02  -2.2107403e-02  -2.3559706e-02  -2.4971649e-02  -2.6343911e-02  -2.7677166e-02  -2.8972079e-02  -3.0229316e-02  -3.1449539e-02  -3.2633405e-02  -3.3781566e-02  -3.4894670e-02  -3.5973359e-02  -3.7018268e-02  -3.8030031e-02  -3.9009275e-02  -3.9956621e-02  -4.0872686e-02  -4.1758082e-02  -4.2613417e-02  -4.3439291e-02  -4.4236302e-02  -4.5005042e-02  -4.5746098e-02  -4.6460051e-02  -4.7147478e-02  -4.7808951e-02  -4.8445036e-02  -4.9056297e-02  -4.9643288e-02  -5.0206562e-02  -5.0746666e-02  -5.1264141e-02  -5.1759524e-02  -5.2233347e-02  -5.2686135e-02  -5.3118412e-02  -5.3530693e-02  -5.3923490e-02  -5.4297312e-02  -5.4652673e-02  -5.4990063e-02  -5.5309965e-02  -5.5612853e-02  -5.5899199e-02  -5.6169468e-02  -5.6424119e-02  -5.6663606e-02  -5.6888379e-02  -5.7098880e-02  -5.7295547e-02  -5.7478813e-02  -5.7649104e-02  -5.7806841e-02  -5.7952441e-02  -5.8086314e-02  -5.8208865e-02  -5.8320493e-02  -5.8421592e-02  -5.8512551e-02  -5.8593753e-02  -5.8665575e-02  -5.8728390e-02  -5.8782564e-02  -5.8828458e-02  -5.8866429e-02  -5.8896825e-02  -5.8919468e-02  -5.8931077e-02  -5.8931338e-02  -5.8920629e-02  -5.8899319e-02  -5.8867770e-02  -5.8826333e-02  -5.8775354e-02  -5.8715168e-02  -5.8646104e-02  -5.8568481e-02  -5.8482609e-02  -5.8388794e-02  -5.8287328e-02  -5.8178503e-02  -5.8062682e-02  -5.7940182e-02  -5.7811290e-02  -5.7676288e-02  -5.7535461e-02  -5.7389091e-02  -5.7237460e-02  -5.7080848e-02  -5.6919536e-02  -5.6753802e-02  -5.6583925e-02  -5.6410182e-02  -5.6232848e-02  -5.6052199e-02  -5.5868511e-02  -5.5682055e-02  -5.5493105e-02  -5.5301933e-02  -5.5108809e-02  -5.4914003e-02  -5.4717785e-02  -5.4520422e-02  -5.4322182e-02  -5.4123331e-02  -5.3924134e-02  -5.3724855e-02  -5.3525759e-02  -5.3327109e-02  -5.3129165e-02  -5.2932189e-02  -5.2736440e-02  -5.2542179e-02  -5.2349662e-02  -5.2159148e-02  -5.1970892e-02  -5.1785141e-02  -5.1601957e-02  -5.1421524e-02  -5.1244088e-02  -5.1069876e-02  -5.0899095e-02  -5.0731938e-02  -5.0568575e-02  -5.0409162e-02  -5.0253835e-02  -5.0102711e-02  -4.9955889e-02  -4.9813452e-02  -4.9675463e-02  -4.9541967e-02  -4.9412990e-02  -4.9288542e-02  -4.9168613e-02  -4.9053175e-02  -4.8942183e-02  -4.8835572e-02  -4.8733261e-02  -4.8635149e-02  -4.8541118e-02  -4.8451030e-02  -4.8364732e-02  -4.8282049e-02  -4.8202791e-02  -4.8126747e-02  -4.8053692e-02  -4.7983377e-02  -4.7915541e-02  -4.7849900e-02  -4.7786154e-02  -4.7724006e-02  -4.7663513e-02  -4.7605141e-02  -4.7548796e-02  -4.7494329e-02  -4.7441591e-02  -4.7390442e-02  -4.7340742e-02  -4.7292357e-02  -4.7245156e-02  -4.7199014e-02  -4.7153809e-02  -4.7109422e-02  -4.7065739e-02  -4.7022650e-02  -4.6980050e-02  -4.6937837e-02  -4.6895913e-02  -4.6854184e-02  -4.6812561e-02  -4.6770958e-02  -4.6729295e-02  -4.6687493e-02  -4.6645480e-02  -4.6603186e-02  -4.6560547e-02  -4.6517501e-02  -4.6473990e-02  -4.6429964e-02  -4.6385372e-02  -4.6340169e-02  -4.6294316e-02  -4.6247776e-02  -4.6200516e-02  -4.6152508e-02  -4.6103727e-02  -4.6054153e-02  -4.6003877e-02  -4.5953069e-02  -4.5901818e-02  -4.5850249e-02  -4.5798515e-02  -4.5746808e-02  -4.5695348e-02  -4.5644392e-02  -4.5594229e-02  -4.5545180e-02  -4.5497600e-02  -4.5451878e-02  -4.5408436e-02  -4.5367728e-02  -4.5330243e-02  -4.5296501e-02  -4.5266685e-02  -4.5241200e-02  -4.5220744e-02  -4.5205823e-02  -4.5196754e-02  -4.5193665e-02  -4.5196494e-02  -4.5204990e-02  -4.5218713e-02  -4.5237033e-02  -4.5259130e-02  -4.5283997e-02  -4.5310436e-02  -4.5337059e-02  -4.5362288e-02  -4.5384375e-02  -4.5402895e-02  -4.5415606e-02  -4.5418875e-02  -4.5409257e-02  -4.5383490e-02  -4.5338501e-02  -4.5271402e-02  -4.5179488e-02  -4.5060243e-02  -4.4911337e-02  -4.4730624e-02  -4.4516144e-02  -4.4266124e-02  -4.3978977e-02  -4.3653300e-02  -4.3287878e-02  -4.2881681e-02  -4.2433864e-02  -4.1943769e-02  -4.1410923e-02  -4.0835040e-02  -4.0216020e-02  -3.9553284e-02  -3.8848704e-02  -3.8109574e-02  -3.7343481e-02  -3.6558088e-02  -3.5761135e-02  -3.4960441e-02  -3.4163901e-02  -3.3379488e-02  -3.2615253e-02  -3.1879323e-02  -3.1179905e-02  -3.0525281e-02  -2.9923811e-02  -2.9383934e-02  -2.8914165e-02  -2.8523097e-02  -2.8219400e-02  -2.8010927e-02  -2.7898331e-02  -2.7885855e-02  -2.7972992e-02  -2.8153429e-02  -2.8416511e-02  -2.8755087e-02  -2.9159390e-02  -2.9618180e-02  -3.0119432e-02  -3.0650628e-02  -3.1199454e-02  -3.1753230e-02  -3.2300203e-02  -3.2829643e-02  -3.3331843e-02  -3.3798117e-02  -3.4220803e-02  -3.4593258e-02  -3.4909866e-02  -3.5166029e-02  -3.5358173e-02  -3.5483746e-02  -3.5541220e-02  -3.5530045e-02  -3.5449063e-02  -3.5298165e-02  -3.5078235e-02  -3.4790411e-02  -3.4436077e-02  -3.4016872e-02  -3.3534680e-02  -3.2991642e-02  -3.2390144e-02  -3.1732826e-02  -3.1022576e-02  -3.0262535e-02  -2.9456080e-02  -2.8605747e-02  -2.7713708e-02  -2.6782152e-02  -2.5812834e-02  -2.4807082e-02  -2.3765789e-02  -2.2689419e-02  -2.1578002e-02  -2.0431139e-02  -1.9247999e-02  -1.8027318e-02  -1.6767403e-02  -1.5466130e-02  -1.4121613e-02  -1.2731557e-02  -1.1293177e-02  -9.8037113e-03  -8.2604200e-03  -6.6605885e-03  -5.0041347e-03  -3.2930406e-03  -1.5242235e-03   3.0530312e-04   2.1982987e-03   4.1572954e-03   6.1845979e-03   8.2822840e-03   1.0452204e-02   1.2695981e-02   1.5015010e-02   1.7410468e-02   1.9883382e-02   2.2434488e-02   2.5064307e-02   2.7773183e-02   3.0561283e-02   3.3428598e-02   3.6374944e-02   3.9399959e-02   4.2503104e-02   4.5683666e-02   4.8940754e-02   5.2273300e-02   5.5680061e-02   5.9159616e-02   6.2710370e-02   6.6330550e-02   7.0018206e-02   7.3771212e-02   7.7587267e-02   8.1463892e-02   8.5398433e-02   8.9388058e-02   9.3429758e-02   9.7520352e-02   1.0165648e-01   1.0583465e-01   1.1005117e-01   1.1430215e-01   1.1858356e-01   1.2289114e-01   1.2722050e-01   1.3156705e-01   1.3592605e-01   1.4029256e-01   1.4466147e-01   1.4902751e-01   1.5338523e-01   1.5772900e-01   1.6205302e-01   1.6635131e-01   1.7061773e-01   1.7484594e-01   1.7903111e-01   1.8317581e-01   1.8727339e-01   1.9131574e-01   1.9529498e-01   1.9920353e-01   2.0303405e-01   2.0677945e-01   2.1043291e-01   2.1398787e-01   2.1743803e-01   2.2077734e-01   2.2400001e-01   2.2710053e-01   2.3007361e-01   2.3291427e-01   2.3561773e-01   2.3817953e-01   2.4059541e-01   2.4286142e-01   2.4497384e-01   2.4692921e-01   2.4872434e-01   2.5035632e-01   2.5182260e-01   2.5312077e-01   2.5424870e-01   2.5520449e-01   2.5598652e-01   2.5659344e-01   2.5702415e-01   2.5727782e-01   2.5735388e-01   2.5725205e-01   2.5697228e-01   2.5651481e-01   2.5588013e-01   2.5506900e-01   2.5408243e-01   2.5292173e-01   2.5158844e-01   2.5008438e-01   2.4841162e-01   2.4657253e-01   2.4456970e-01   2.4240602e-01   2.4008461e-01   2.3760890e-01   2.3497900e-01   2.3218741e-01   2.2924095e-01   2.2614768e-01   2.2291552e-01   2.1955224e-01   2.1606552e-01   2.1246285e-01   2.0875162e-01   2.0493907e-01   2.0103231e-01   1.9703830e-01   1.9296389e-01   1.8881578e-01   1.8460053e-01   1.8032457e-01   1.7599419e-01   1.7161555e-01   1.6719467e-01   1.6273745e-01   1.5824953e-01   1.5373647e-01   1.4920374e-01   1.4465670e-01   1.4010055e-01   1.3554035e-01   1.3098102e-01   1.2642736e-01   1.2188399e-01   1.1735543e-01   1.1284603e-01   1.0836001e-01   1.0390146e-01   9.9474312e-02   9.5082362e-02   9.0729270e-02   8.6418552e-02   8.2153584e-02   7.7937602e-02   7.3773700e-02   6.9664832e-02   6.5613812e-02   6.1623312e-02   5.7695865e-02   5.3833860e-02   5.0039550e-02   4.6315043e-02   4.2662309e-02   3.9083177e-02   3.5579333e-02   3.2152326e-02   2.8803561e-02   2.5534305e-02   2.2345682e-02   1.9238677e-02   1.6214134e-02   1.3272755e-02   1.0415102e-02   7.6415977e-03   4.9525225e-03   2.3480167e-03  -1.7192466e-04  -2.6236998e-03  -5.0208357e-03  -7.3586857e-03  -9.6331090e-03  -1.1840472e-02  -1.3977649e-02  -1.6042019e-02  -1.8031471e-02  -1.9944401e-02  -2.1779709e-02  -2.3536805e-02  -2.5215606e-02  -2.6816535e-02  -2.8340523e-02  -2.9789007e-02  -3.1163931e-02  -3.2461853e-02  -3.3681853e-02  -3.4829673e-02  -3.5911325e-02  -3.6933088e-02  -3.7901511e-02  -3.8823411e-02  -3.9705870e-02  -4.0556243e-02  -4.1382150e-02  -4.2191480e-02  -4.2992391e-02  -4.3793308e-02  -4.4602926e-02  -4.5430207e-02  -4.6284381e-02  -4.7175325e-02  -4.8114991e-02  -4.9115061e-02  -5.0187576e-02  -5.1345083e-02  -5.2600633e-02  -5.3967783e-02  -5.5460592e-02  -5.7093627e-02  -5.8881958e-02  -6.0841160e-02  -6.2987313e-02  -6.5337001e-02  -6.7907314e-02  -7.0715838e-02  -7.3780672e-02  -7.7120424e-02  -8.0754205e-02  -8.4701629e-02  -8.8976119e-02  -9.3573802e-02  -9.8490730e-02  -1.0371843e-01  -1.0924372e-01  -1.1504867e-01  -1.2111065e-01  -1.2740229e-01  -1.3389150e-01  -1.4054148e-01  -1.4731070e-01  -1.5415290e-01  -1.6101709e-01  -1.6784759e-01  -1.7458396e-01  -1.8116105e-01  -1.8750900e-01  -1.9355320e-01  -1.9921435e-01  -2.0440841e-01  -2.0904659e-01  -2.1303543e-01  -2.1627672e-01  -2.1866750e-01  -2.2010014e-01  -2.2046225e-01  -2.1963673e-01  -2.1750176e-01  -2.1401488e-01  -2.0923809e-01  -2.0301481e-01  -1.9519334e-01  -1.8563840e-01  -1.7423114e-01  -1.6086911e-01  -1.4546631e-01  -1.2795311e-01  -1.0827636e-01  -8.6399267e-02  -6.2301498e-02  -3.5979123e-02  -7.4446328e-03   2.3273064e-02   5.6128641e-02   9.1060350e-02   1.2799003e-01   1.6682309e-01   2.0744851e-01   2.4973881e-01   2.9355008e-01   3.3872199e-01   3.8507778e-01   4.3242427e-01   4.8055186e-01   5.2923450e-01   5.7822974e-01   6.2731365e-01   6.7622344e-01   7.2446533e-01   7.7155966e-01   8.1705730e-01   8.6053960e-01   9.0161841e-01   9.3993609e-01   9.7516551e-01   1.0070100e+00   1.0352035e+00   1.0595103e+00   1.0797252e+00   1.0956737e+00   1.1072117e+00   1.1142254e+00   1.1166317e+00   1.1143781e+00   1.1074424e+00   1.0958329e+00   1.0795886e+00   1.0587787e+00   1.0333944e+00   1.0036409e+00   9.6993242e-01   9.3267330e-01   8.9225821e-01   8.4907213e-01   8.0349033e-01   7.5587842e-01   7.0659227e-01   6.5597807e-01   6.0437234e-01   5.5210185e-01   4.9948384e-01   4.4682604e-01   3.9442637e-01   3.4257307e-01   2.9154469e-01   2.4161011e-01   1.9302852e-01   1.4604946e-01   1.0091275e-01   5.7843203e-02   1.6950853e-02  -2.1708933e-02  -5.8081416e-02  -9.2121945e-02  -1.2379595e-01  -1.5307894e-01  -1.7995651e-01  -2.0442435e-01  -2.2648821e-01  -2.4616395e-01  -2.6347750e-01  -2.7846486e-01  -2.9117214e-01  -3.0165551e-01  -3.0998124e-01  -3.1622568e-01  -3.2047526e-01  -3.2282649e-01  -3.2338596e-01  -3.2227037e-01  -3.1960647e-01  -3.1553111e-01  -3.1019123e-01  -3.0374383e-01  -2.9634189e-01  -2.8805577e-01  -2.7901539e-01  -2.6935880e-01  -2.5921599e-01  -2.4870905e-01  -2.3795217e-01  -2.2705165e-01  -2.1610586e-01  -2.0520530e-01  -1.9443255e-01  -1.8386229e-01  -1.7356129e-01  -1.6358844e-01  -1.5399471e-01  -1.4482318e-01  -1.3610901e-01  -1.2787947e-01  -1.2015394e-01  -1.1294388e-01  -1.0625285e-01  -1.0007652e-01  -9.4402645e-02  -8.9211082e-02  -8.4473789e-02  -8.0154820e-02  -7.6210399e-02  -7.2627596e-02  -6.9402147e-02  -6.6506619e-02  -6.3914701e-02  -6.1601202e-02  -5.9542050e-02  -5.7714201e-02  -5.6095983e-02  -5.4667035e-02  -5.3407869e-02  -5.2299866e-02  -5.1325274e-02  -5.0467213e-02  -4.9709668e-02  -4.9037493e-02  -4.8436414e-02  -4.7893022e-02  -4.7394778e-02  -4.6930011e-02  -4.6487919e-02  -4.6058715e-02  -4.5632810e-02  -4.5201163e-02  -4.4755831e-02  -4.4289970e-02  -4.3797837e-02  -4.3274790e-02  -4.2717283e-02  -4.2122872e-02  -4.1490214e-02  -4.0819062e-02  -4.0110269e-02  -3.9354904e-02  -3.8541151e-02  -3.7666998e-02  -3.6729650e-02  -3.5725952e-02  -3.4653732e-02  -3.3511800e-02  -3.2299946e-02  -3.1018945e-02  -2.9670554e-02  -2.8257509e-02  -2.6783531e-02  -2.5253324e-02  -2.3672570e-02  -2.2047929e-02  -2.0386649e-02  -1.8699650e-02  -1.6998941e-02  -1.5296061e-02  -1.3602084e-02  -1.1927619e-02  -1.0282808e-02  -8.6773258e-03  -7.1203834e-03  -5.6207239e-03  -4.1843309e-03  -2.8160068e-03  -1.5276029e-03  -3.2803436e-04   7.8868769e-04   1.8323177e-03   2.8143146e-03   3.7475247e-03   4.6529753e-03   5.5508887e-03   6.4598895e-03   7.3970043e-03   8.3776618e-03   9.4156929e-03   1.0523331e-02   1.1710430e-02   1.2984987e-02   1.4354667e-02   1.5825510e-02   1.7401926e-02   1.9086144e-02   2.0878236e-02   2.2777463e-02   2.4782394e-02   2.6890894e-02   2.9100135e-02   3.1406589e-02   3.3806029e-02   3.6293532e-02   3.8863476e-02   4.1509542e-02   4.4225086e-02   4.7004940e-02   4.9843376e-02   5.2735110e-02   5.5675521e-02   5.8660641e-02   6.1687163e-02   6.4752437e-02   6.7854472e-02   7.0991933e-02   7.4164145e-02   7.7371090e-02   8.0613105e-02   8.3890178e-02   8.7203211e-02   9.0553052e-02   9.3940406e-02   9.7365830e-02   1.0082974e-01   1.0433240e-01   1.0787393e-01   1.1145431e-01   1.1507336e-01   1.1873078e-01   1.2242611e-01   1.2615873e-01   1.2992790e-01   1.3373271e-01   1.3757226e-01   1.4144558e-01   1.4535150e-01   1.4928882e-01   1.5325631e-01   1.5725264e-01   1.6127648e-01   1.6532643e-01   1.6940103e-01   1.7349879e-01   1.7761816e-01   1.8175755e-01   1.8591532e-01   1.9008976e-01   1.9427914e-01   1.9848167e-01   2.0269549e-01   2.0692080e-01   2.1115764e-01   2.1540326e-01   2.1965490e-01   2.2390983e-01   2.2816536e-01   2.3241879e-01   2.3666744e-01   2.4090868e-01   2.4513985e-01   2.4935835e-01   2.5356158e-01   2.5774696e-01   2.6191193e-01   2.6605395e-01   2.7017050e-01   2.7425907e-01   2.7831718e-01   2.8234236e-01   2.8633217e-01   2.9028417e-01   2.9419595e-01   2.9806513e-01   3.0188932e-01   3.0566618e-01   3.0939336e-01   3.1306855e-01   3.1668956e-01   3.2025430e-01   3.2376048e-01   3.2720585e-01   3.3058818e-01   3.3390528e-01   3.3715497e-01   3.4033512e-01   3.4344361e-01   3.4647836e-01   3.4943731e-01   3.5231844e-01   3.5511975e-01   3.5783928e-01   3.6047507e-01   3.6302523e-01   3.6548786e-01   3.6786112e-01   3.7014318e-01   3.7233223e-01   3.7442653e-01   3.7642432e-01   3.7832389e-01   3.8012357e-01   3.8182169e-01   3.8341665e-01   3.8490683e-01   3.8629067e-01   3.8756664e-01   3.8873323e-01   3.8978895e-01   3.9073235e-01   3.9156201e-01   3.9227653e-01   3.9287397e-01   3.9335344e-01   3.9371512e-01   3.9395928e-01   3.9408618e-01   3.9409606e-01   3.9398926e-01   3.9376629e-01   3.9342767e-01   3.9297399e-01   3.9240586e-01   3.9172395e-01   3.9092897e-01   3.9002168e-01   3.8900286e-01   3.8787337e-01   3.8663408e-01   3.8528593e-01   3.8382988e-01   3.8226696e-01   3.8059823e-01   3.7882478e-01   3.7694777e-01   3.7496838e-01   3.7288786e-01   3.7070747e-01   3.6842856e-01   3.6605247e-01   3.6358063e-01   3.6101448e-01   3.5835552e-01   3.5560531e-01   3.5276541e-01   3.4983747e-01   3.4682315e-01   3.4372418e-01   3.4054231e-01   3.3727935e-01   3.3393714e-01   3.3051759e-01   3.2702262e-01   3.2345422e-01   3.1981441e-01   3.1610526e-01   3.1232882e-01   3.0848715e-01   3.0458242e-01   3.0061682e-01   2.9659259e-01   2.9251202e-01   2.8837742e-01   2.8419115e-01   2.7995562e-01   2.7567327e-01   2.7134658e-01   2.6697808e-01   2.6257032e-01   2.5812591e-01   2.5364750e-01   2.4913814e-01   2.4460830e-01   2.4006195e-01   2.3549949e-01   2.3092168e-01   2.2632955e-01   2.2172447e-01   2.1710811e-01   2.1248245e-01   2.0784978e-01   2.0321271e-01   1.9857416e-01   1.9393735e-01   1.8930584e-01   1.8468098e-01   1.8006107e-01   1.7544894e-01   1.7084581e-01   1.6625351e-01   1.6167405e-01   1.5710938e-01   1.5256142e-01   1.4803203e-01   1.4352303e-01   1.3903619e-01   1.3457323e-01   1.3013584e-01   1.2572564e-01   1.2134422e-01   1.1699311e-01   1.1267381e-01   1.0838775e-01   1.0413618e-01   9.9920437e-02   9.5741864e-02   9.1601753e-02   8.7501351e-02   8.3441859e-02   7.9424428e-02   7.5450164e-02   7.1520122e-02   6.7635314e-02   6.3796701e-02   6.0005198e-02   5.6261671e-02   5.2566942e-02   4.8921781e-02   4.5326913e-02   4.1783016e-02   3.8290719e-02   3.4850604e-02   3.1463207e-02   2.8129013e-02   2.4848464e-02   2.1621950e-02   1.8449816e-02   1.5332360e-02   1.2269831e-02   9.2624320e-03   6.3103165e-03   3.4135919e-03   5.7231806e-04  -2.2134931e-03  -4.9438770e-03  -7.6189164e-03  -1.0238742e-02  -1.2803531e-02  -1.5313510e-02  -1.7768951e-02  -2.0170174e-02  -2.2517549e-02  -2.4811489e-02  -2.7052458e-02  -2.9240967e-02  -3.1377572e-02  -3.3462881e-02  -3.5497415e-02  -3.7481277e-02  -3.9413198e-02  -4.1293004e-02  -4.3121838e-02  -4.4900826e-02  -4.6631080e-02  -4.8313698e-02  -4.9949763e-02  -5.1540343e-02  -5.3086492e-02  -5.4589251e-02  -5.6049644e-02  -5.7468682e-02  -5.8847362e-02  -6.0186665e-02  -6.1487559e-02  -6.2750996e-02  -6.3977915e-02  -6.5169240e-02  -6.6325880e-02  -6.7448730e-02  -6.8538671e-02  -6.9596568e-02  -7.0623274e-02  -7.1619624e-02  -7.2586443e-02  -7.3524538e-02  -7.4434702e-02  -7.5317715e-02  -7.6174342e-02  -7.7005332e-02  -7.7811422e-02  -7.8593333e-02  -7.9351771e-02  -8.0087429e-02  -8.0800985e-02  -8.1493103e-02  -8.2164430e-02  -8.2815602e-02  -8.3447239e-02  -8.4059945e-02  -8.4654416e-02  -8.5231051e-02  -8.5789956e-02  -8.6331247e-02  -8.6855055e-02  -8.7361519e-02  -8.7850791e-02  -8.8323035e-02  -8.8778425e-02  -8.9217149e-02  -8.9639405e-02  -9.0045402e-02  -9.0435363e-02  -9.0809519e-02  -9.1168115e-02  -9.1511408e-02  -9.1839666e-02  -9.2153167e-02  -9.2452202e-02  -9.2737074e-02  -9.3008097e-02  -9.3265597e-02  -9.3509910e-02  -9.3741386e-02  -9.3960384e-02  -9.4167276e-02  -9.4362447e-02  -9.4546290e-02  -9.4719214e-02  -9.4881635e-02  -9.5033983e-02  -9.5176701e-02  -9.5310241e-02  -9.5435067e-02  -9.5551655e-02  -9.5660458e-02  -9.5759942e-02  -9.5849649e-02  -9.5931421e-02  -9.6006901e-02  -9.6077529e-02  -9.6144546e-02  -9.6208990e-02  -9.6271698e-02  -9.6333303e-02  -9.6394239e-02  -9.6454739e-02  -9.6514830e-02  -9.6574343e-02  -9.6632903e-02  -9.6689936e-02  -9.6744671e-02  -9.6796339e-02  -9.6841240e-02  -9.6874588e-02  -9.6891757e-02  -9.6888276e-02  -9.6859832e-02  -9.6802272e-02  -9.6711599e-02  -9.6583974e-02  -9.6415715e-02  -9.6203299e-02  -9.5943360e-02  -9.5632689e-02  -9.5268236e-02  -9.4847109e-02  -9.4366571e-02  -9.3825367e-02  -9.3225933e-02  -9.2572099e-02  -9.1869357e-02  -9.1124859e-02  -9.0347420e-02  -8.9547521e-02  -8.8737304e-02  -8.7930574e-02  -8.7142800e-02  -8.6391115e-02  -8.5694313e-02  -8.5072853e-02  -8.4545825e-02  -8.4123563e-02  -8.3816635e-02  -8.3632573e-02  -8.3595716e-02  -8.3731999e-02  -8.4018256e-02  -8.4427364e-02  -8.4941032e-02  -8.5530569e-02  -8.6165690e-02  -8.6817061e-02  -8.7458544e-02  -8.8068040e-02  -8.8627485e-02  -8.9122856e-02  -8.9544163e-02  -8.9885456e-02  -9.0144820e-02  -9.0323989e-02  -9.0420994e-02  -9.0442743e-02  -9.0399736e-02  -9.0301994e-02  -9.0159058e-02  -8.9979989e-02  -8.9773368e-02  -8.9547297e-02  -8.9309398e-02  -8.9066812e-02  -8.8826203e-02  -8.8593753e-02  -8.8375166e-02  -8.8175221e-02  -8.7993043e-02  -8.7826053e-02  -8.7672060e-02  -8.7528978e-02  -8.7394823e-02  -8.7267713e-02  -8.7145869e-02  -8.7027616e-02  -8.6911382e-02  -8.6795662e-02  -8.6679058e-02  -8.6560638e-02  -8.6440101e-02  -8.6317401e-02  -8.6192500e-02  -8.6065369e-02  -8.5935996e-02  -8.5804382e-02  -8.5670541e-02  -8.5534500e-02  -8.5396300e-02  -8.5255996e-02  -8.5113657e-02  -8.4969363e-02  -8.4823211e-02  -8.4675310e-02  -8.4525782e-02  -8.4374762e-02  -8.4222377e-02  -8.4068598e-02  -8.3913553e-02  -8.3757414e-02  -8.3600351e-02  -8.3442536e-02  -8.3284142e-02  -8.3125342e-02  -8.2966309e-02  -8.2807216e-02  -8.2648238e-02  -8.2489549e-02  -8.2331324e-02  -8.2173739e-02  -8.2016970e-02  -8.1861192e-02  -8.1706584e-02  -8.1553322e-02  -8.1401585e-02  -8.1251549e-02  -8.1103394e-02  -8.0957300e-02  -8.0813445e-02  -8.0672010e-02  -8.0533174e-02  -8.0397120e-02  -8.0264029e-02  -8.0134082e-02  -8.0007461e-02  -7.9884350e-02  -7.9764931e-02  -7.9649387e-02  -7.9537776e-02  -7.9430139e-02  -7.9326547e-02  -7.9227061e-02  -7.9131722e-02  -7.9040555e-02  -7.8953570e-02  -7.8870762e-02  -7.8792106e-02  -7.8717566e-02  -7.8647085e-02  -7.8580593e-02  -7.8518003e-02  -7.8459211e-02  -7.8404099e-02  -7.8352530e-02  -7.8304353e-02  -7.8259400e-02  -7.8217487e-02  -7.8178415e-02  -7.8141966e-02  -7.8107909e-02  -7.8075995e-02  -7.8045959e-02  -7.8017521e-02  -7.7990384e-02  -7.7964235e-02  -7.7938744e-02  -7.7913567e-02  -7.7888341e-02  -7.7862690e-02  -7.7836219e-02  -7.7808519e-02  -7.7779167e-02  -7.7747988e-02  -7.7714773e-02  -7.7679178e-02  -7.7640865e-02  -7.7599501e-02  -7.7554758e-02  -7.7506315e-02  -7.7453855e-02  -7.7397067e-02  -7.7335647e-02  -7.7269294e-02  -7.7197714e-02  -7.7120619e-02  -7.7037724e-02  -7.6948753e-02  -7.6853433e-02  -7.6751497e-02  -7.6642902e-02  -7.6529729e-02  -7.6411021e-02  -7.6285004e-02  -7.6150132e-02  -7.6005088e-02  -7.5848785e-02  -7.5680361e-02  -7.5499186e-02  -7.5304856e-02  -7.5097197e-02  -7.4876261e-02  -7.4642331e-02  -7.4395918e-02  -7.4137444e-02  -7.3867004e-02  -7.3584871e-02  -7.3291543e-02  -7.2987130e-02  -7.2668424e-02  -7.2333815e-02  -7.1982088e-02  -7.1612015e-02  -7.1222365e-02  -7.0811891e-02  -7.0379342e-02  -6.9923456e-02  -6.9442960e-02  -6.8936575e-02  -6.8403010e-02  -6.7840966e-02  -6.7249136e-02  -6.6626201e-02  -6.5970834e-02  -6.5281834e-02  -6.4558147e-02  -6.3798307e-02  -6.3000820e-02  -6.2164191e-02  -6.1286924e-02  -6.0367517e-02  -5.9404469e-02  -5.8396276e-02  -5.7341432e-02  -5.6238426e-02  -5.5085747e-02  -5.3881883e-02  -5.2625317e-02  -5.1314530e-02  -4.9948002e-02  -4.8524210e-02  -4.7041629e-02  -4.5498730e-02  -4.3893984e-02  -4.2225859e-02  -4.0492820e-02  -3.8693330e-02  -3.6825850e-02  -3.4888838e-02  -3.2880750e-02  -3.0800040e-02  -2.8645159e-02  -2.6414556e-02  -2.4106679e-02  -2.1719971e-02  -1.9252874e-02  -1.6703829e-02  -1.4071273e-02  -1.1354068e-02  -8.5522777e-03  -5.6662115e-03  -2.6972659e-03   3.5303469e-04   3.4830585e-03   6.6910661e-03   9.9752106e-03   1.3333537e-02   1.6763985e-02   2.0264382e-02   2.3832454e-02   2.7465814e-02   3.1161970e-02   3.4918323e-02   3.8732165e-02   4.2600681e-02   4.6520948e-02   5.0489937e-02   5.4504509e-02   5.8561420e-02   6.2657317e-02   6.6788738e-02   7.0952117e-02   7.5143778e-02   7.9359937e-02   8.3596704e-02   8.7850081e-02   9.2115962e-02   9.6390134e-02   1.0066828e-01   1.0494594e-01   1.0921820e-01   1.1348065e-01   1.1772907e-01   1.2195902e-01   1.2616587e-01   1.3034480e-01   1.3449077e-01   1.3859859e-01   1.4266281e-01   1.4667785e-01   1.5063788e-01   1.5453691e-01   1.5836873e-01   1.6212695e-01   1.6580497e-01   1.6939601e-01   1.7289308e-01   1.7628899e-01   1.7957636e-01   1.8274763e-01   1.8579502e-01   1.8871056e-01   1.9148622e-01   1.9412283e-01   1.9661978e-01   1.9897190e-01   2.0117521e-01   2.0322473e-01   2.0511284e-01   2.0683304e-01   2.0838003e-01   2.0974967e-01   2.1093903e-01   2.1194637e-01   2.1277113e-01   2.1341394e-01   2.1387662e-01   2.1416219e-01   2.1427483e-01   2.1421993e-01   2.1400408e-01   2.1363250e-01   2.1310715e-01   2.1244360e-01   2.1165626e-01   2.1075682e-01   2.0975425e-01   2.0865479e-01   2.0746196e-01   2.0617658e-01   2.0479672e-01   2.0331774e-01   2.0173229e-01   2.0003028e-01   1.9819892e-01   1.9622268e-01   1.9408281e-01   1.9175108e-01   1.8920069e-01   1.8640911e-01   1.8335805e-01   1.8003644e-01   1.7640980e-01   1.7246485e-01   1.6823332e-01   1.6376052e-01   1.5911406e-01   1.5435515e-01   1.4953064e-01   1.4468554e-01   1.3985605e-01   1.3506911e-01   1.3034326e-01   1.2570341e-01   1.2114382e-01   1.1664881e-01   1.1220456e-01   1.0779901e-01   1.0342195e-01   9.9064971e-02   9.4721468e-02   9.0386653e-02   8.6057550e-02   8.1732993e-02   7.7413626e-02   7.3101907e-02   6.8802105e-02   6.4520490e-02   6.0268827e-02   5.6054695e-02   5.1883059e-02   4.7758617e-02   4.3685799e-02   3.9668769e-02   3.5711426e-02   3.1817403e-02   2.7990063e-02   2.4232507e-02   2.0547566e-02   1.6937809e-02   1.3405533e-02   9.9527733e-03   6.5812968e-03   3.2926042e-03   8.7930084e-05  -3.0317575e-03  -6.0657568e-03  -9.0169538e-03  -1.1910253e-02  -1.4746563e-02  -1.7520970e-02  -2.0227942e-02  -2.2863105e-02  -2.5422766e-02  -2.7903668e-02  -3.0302991e-02  -3.2618347e-02  -3.4847785e-02  -3.6989786e-02  -3.9043270e-02  -4.1007588e-02  -4.2882528e-02  -4.4668313e-02  -4.6365599e-02  -4.7975480e-02  -4.9499482e-02  -5.0939567e-02  -5.2298132e-02  -5.3578008e-02  -5.4782463e-02  -5.5915197e-02  -5.6980347e-02  -5.7982484e-02  -5.8926628e-02  -5.9818196e-02  -6.0662804e-02  -6.1466467e-02  -6.2235622e-02  -6.2977131e-02  -6.3698279e-02  -6.4406772e-02  -6.5110742e-02  -6.5818743e-02  -6.6539752e-02  -6.7283171e-02  -6.8058822e-02  -6.8876954e-02  -6.9748236e-02  -7.0683762e-02  -7.1695049e-02  -7.2794038e-02  -7.3993090e-02  -7.5304994e-02  -7.6742958e-02  -7.8320616e-02  -8.0052024e-02  -8.1951662e-02  -8.4034432e-02  -8.6315661e-02  -8.8812493e-02  -9.1542409e-02  -9.4521462e-02  -9.7766240e-02  -1.0129387e-01  -1.0512200e-01  -1.0926132e-01  -1.1371255e-01  -1.1847730e-01  -1.2355191e-01  -1.2892740e-01  -1.3458946e-01  -1.4051848e-01  -1.4668955e-01  -1.5307241e-01  -1.5963151e-01  -1.6632599e-01  -1.7310965e-01  -1.7993101e-01  -1.8673325e-01  -1.9345425e-01  -2.0002656e-01  -2.0637743e-01  -2.1242879e-01  -2.1809726e-01  -2.2329364e-01  -2.2792060e-01  -2.3187706e-01  -2.3505689e-01  -2.3734856e-01  -2.3863510e-01  -2.3879413e-01  -2.3778796e-01  -2.3560073e-01  -2.3207588e-01  -2.2706875e-01  -2.2044810e-01  -2.1209607e-01  -2.0190821e-01  -1.8979348e-01  -1.7567421e-01  -1.5948617e-01  -1.4117848e-01  -1.2071372e-01  -9.8067811e-02  -7.3230119e-02  -4.6203387e-02  -1.7003529e-02   1.4340178e-02   4.7784615e-02   8.3273199e-02   1.2073589e-01   1.6008919e-01   2.0123613e-01   2.4406630e-01   2.8845582e-01   3.3426736e-01   3.8135011e-01   4.2968995e-01   4.7916744e-01   5.2925184e-01   5.7943112e-01   6.2921901e-01   6.7815499e-01   7.2580427e-01   7.7175782e-01   8.1563235e-01   8.5707031e-01   8.9573992e-01   9.3133511e-01   9.6357559e-01   9.9220679e-01   1.0169999e+00   1.0377519e+00   1.0542853e+00   1.0664488e+00   1.0741176e+00   1.0771935e+00   1.0756041e+00   1.0693027e+00   1.0582686e+00   1.0425067e+00   1.0220476e+00   9.9694776e-01   9.6732116e-01   9.3355341e-01   8.9610304e-01   8.5541314e-01   8.1191126e-01   7.6600949e-01   7.1810440e-01   6.6857707e-01   6.1779308e-01   5.6610254e-01   5.1384003e-01   4.6132465e-01   4.0885929e-01   3.5673046e-01   3.0520899e-01   2.5455006e-01   2.0499323e-01   1.5676244e-01   1.1006598e-01   6.5096507e-02   2.2031048e-02  -1.8969001e-02  -5.7757880e-02  -9.4206402e-02  -1.2820554e-01  -1.5971410e-01  -1.8872886e-01  -2.1525376e-01  -2.3929972e-01  -2.6088469e-01  -2.8003364e-01  -2.9677852e-01  -3.1115830e-01  -3.2321898e-01  -3.3301352e-01  -3.4060509e-01  -3.4608423e-01  -3.4955621e-01  -3.5114191e-01  -3.5097871e-01  -3.4922048e-01  -3.4603068e-01  -3.4156984e-01  -3.3599210e-01  -3.2947472e-01  -3.2216899e-01  -3.1414464e-01  -3.0544790e-01  -2.9614306e-01  -2.8631405e-01  -2.7606517e-01  -2.6553306e-01  -2.5479004e-01  -2.4390608e-01  -2.3297184e-01  -2.2208003e-01  -2.1132540e-01  -2.0080432e-01  -1.9059836e-01  -1.8076519e-01  -1.7135172e-01  -1.6239481e-01  -1.5392124e-01  -1.4594772e-01  -1.3848089e-01  -1.3152223e-01  -1.2507452e-01  -1.1913415e-01  -1.1369190e-01  -1.0873298e-01  -1.0423700e-01  -1.0017799e-01  -9.6524362e-02  -9.3238933e-02  -9.0278225e-02  -8.7592844e-02  -8.5130016e-02  -8.2887660e-02  -8.0859688e-02  -7.9026085e-02  -7.7367809e-02  -7.5866794e-02  -7.4505944e-02  -7.3269140e-02  -7.2141236e-02  -7.1108059e-02  -7.0156413e-02  -6.9274073e-02  -6.8449788e-02  -6.7673282e-02  -6.6934972e-02  -6.6226098e-02  -6.5539171e-02  -6.4867547e-02  -6.4205418e-02  -6.3547816e-02  -6.2890612e-02  -6.2230516e-02  -6.1565078e-02  -6.0892685e-02  -6.0212563e-02  -5.9524780e-02  -5.8830239e-02  -5.8130685e-02  -5.7428700e-02  -5.6720067e-02  -5.5997380e-02  -5.5259299e-02  -5.4504399e-02  -5.3731171e-02  -5.2938372e-02  -5.2125009e-02  -5.1289701e-02  -5.0431116e-02  -4.9547971e-02  -4.8639036e-02  -4.7703130e-02  -4.6739122e-02  -4.5745936e-02  -4.4722542e-02  -4.3667964e-02  -4.2581276e-02  -4.1462420e-02  -4.0312622e-02  -3.9128762e-02  -3.7907893e-02  -3.6647702e-02  -3.5346514e-02  -3.4003282e-02  -3.2617600e-02  -3.1189691e-02  -2.9720415e-02  -2.8211265e-02  -2.6664370e-02  -2.5082234e-02  -2.3462930e-02  -2.1804808e-02  -2.0107298e-02  -1.8369804e-02  -1.6591712e-02  -1.4772383e-02  -1.2911156e-02  -1.1007348e-02  -9.0602539e-03  -7.0693238e-03  -5.0352300e-03  -2.9573242e-03  -8.3483910e-04   1.3322528e-03   3.5455087e-03   5.8065324e-03   8.1167173e-03   1.0477247e-02   1.2889093e-02   1.5353021e-02   1.7869581e-02   2.0439116e-02   2.3061760e-02   2.5737433e-02   2.8465848e-02   3.1246507e-02   3.4078700e-02   3.6961510e-02   3.9893807e-02   4.2874252e-02   4.5901297e-02   4.8973180e-02   5.2087934e-02   5.5243272e-02   5.8437424e-02   6.1669463e-02   6.4938617e-02   6.8244252e-02   7.1585878e-02   7.4963148e-02   7.8375854e-02   8.1823931e-02   8.5307457e-02   8.8826649e-02   9.2381869e-02   9.5973618e-02   9.9602541e-02   1.0326942e-01   1.0697519e-01   1.1072091e-01   1.1450774e-01   1.1833472e-01   1.2220075e-01   1.2610474e-01   1.3004485e-01   1.3401847e-01   1.3802220e-01   1.4205186e-01   1.4610253e-01   1.5016848e-01   1.5424322e-01   1.5831460e-01   1.6238961e-01   1.6649240e-01   1.7064501e-01   1.7486732e-01   1.7917707e-01   1.8358984e-01   1.8811906e-01   1.9277599e-01   1.9757173e-01   2.0250700e-01   2.0752488e-01   2.1254768e-01   2.1748688e-01   2.2225085e-01   2.2681214e-01   2.3094406e-01   2.3460368e-01   2.3804396e-01   2.4159511e-01   2.4524383e-01   2.4904833e-01   2.5302390e-01   2.5715594e-01   2.6138756e-01   2.6566024e-01   2.6992656e-01   2.7415018e-01   2.7830587e-01   2.8238473e-01   2.8639649e-01   2.9034941e-01   2.9424951e-01   2.9810060e-01   3.0190429e-01   3.0565993e-01   3.0936471e-01   3.1301605e-01   3.1661261e-01   3.2015231e-01   3.2363297e-01   3.2705230e-01   3.3040791e-01   3.3369735e-01   3.3691801e-01   3.4006725e-01   3.4314227e-01   3.4614022e-01   3.4905826e-01   3.5189417e-01   3.5464466e-01   3.5730648e-01   3.5987655e-01   3.6235207e-01   3.6473040e-01   3.6700916e-01   3.6918618e-01   3.7125949e-01   3.7322737e-01   3.7508831e-01   3.7684100e-01   3.7848438e-01   3.8001759e-01   3.8143999e-01   3.8275096e-01   3.8394929e-01   3.8503474e-01   3.8600717e-01   3.8686634e-01   3.8761176e-01   3.8824250e-01   3.8875921e-01   3.8916279e-01   3.8945409e-01   3.8963386e-01   3.8970281e-01   3.8966157e-01   3.8951069e-01   3.8925068e-01   3.8888330e-01   3.8841392e-01   3.8784174e-01   3.8716547e-01   3.8638411e-01   3.8549690e-01   3.8450335e-01   3.8340326e-01   3.8219667e-01   3.8088389e-01   3.7946551e-01   3.7794238e-01   3.7631561e-01   3.7458658e-01   3.7275695e-01   3.7082861e-01   3.6880377e-01   3.6668486e-01   3.6447376e-01   3.6217206e-01   3.5978207e-01   3.5730585e-01   3.5474517e-01   3.5210152e-01   3.4937614e-01   3.4656995e-01   3.4368365e-01   3.4071762e-01   3.3767199e-01   3.3454659e-01   3.3134101e-01   3.2805453e-01   3.2468617e-01   3.2123468e-01   3.1769765e-01   3.1407379e-01   3.1036863e-01   3.0658785e-01   3.0273679e-01   2.9882045e-01   2.9484352e-01   2.9081035e-01   2.8672495e-01   2.8259102e-01   2.7841191e-01   2.7419065e-01   2.6992993e-01   2.6563212e-01   2.6129925e-01   2.5693302e-01   2.5253481e-01   2.4810108e-01   2.4362221e-01   2.3909862e-01   2.3454291e-01   2.2997986e-01   2.2544647e-01   2.2099185e-01   2.1665891e-01   2.1249017e-01   2.0850073e-01   2.0465309e-01   2.0085713e-01   1.9697039e-01   1.9283003e-01
