   9.8849154e-01   9.8020375e-01   9.5893365e-01   9.2525400e-01   8.8042594e-01   8.2602211e-01   7.6371228e-01   6.9526333e-01   6.2253926e-01   5.4750118e-01   4.7217159e-01   3.9821315e-01   3.2692773e-01   2.5943640e-01   1.9667984e-01   1.3941827e-01   8.8231503e-02   4.3518938e-02   5.4995395e-03  -2.5788151e-02  -5.0486014e-02  -6.8916354e-02  -8.1457609e-02  -8.8391924e-02  -9.0317746e-02  -8.7850722e-02  -8.1606001e-02  -7.2198233e-02  -6.0241566e-02  -4.6349650e-02  -3.1135635e-02  -1.5212170e-02   8.0859298e-04   1.6389241e-02   3.1241689e-02   4.5152209e-02   5.7958244e-02   6.9548651e-02   7.9863700e-02   8.8895078e-02   9.6685883e-02   1.0333063e-01   1.0897525e-01   1.1381642e-01   1.1800152e-01   1.2162837e-01   1.2481430e-01   1.2766449e-01   1.3027202e-01   1.3271789e-01   1.3507097e-01   1.3738802e-01   1.3971372e-01   1.4208061e-01   1.4450914e-01   1.4700930e-01   1.4960357e-01   1.5230339e-01   1.5511399e-01   1.5804003e-01   1.6108567e-01   1.6425453e-01   1.6754970e-01   1.7097373e-01   1.7452864e-01   1.7821593e-01   1.8203657e-01   1.8599100e-01   1.9007910e-01   1.9430026e-01   1.9865332e-01   2.0313658e-01   2.0774782e-01   2.1248431e-01   2.1734274e-01   2.2231932e-01   2.2741038e-01   2.3262003e-01   2.3794375e-01   2.4337353e-01   2.4890115e-01   2.5451828e-01   2.6021638e-01   2.6598677e-01   2.7182061e-01   2.7770888e-01   2.8364240e-01   2.8961185e-01   2.9560771e-01   3.0162032e-01   3.0763986e-01   3.1365632e-01   3.1965956e-01   3.2563924e-01   3.3158490e-01   3.3748588e-01   3.4333137e-01   3.4911039e-01   3.5481181e-01   3.6042434e-01   3.6593649e-01   3.7133664e-01   3.7661301e-01   3.8175363e-01   3.8674639e-01   3.9157900e-01   3.9623902e-01   4.0071383e-01   4.0499067e-01   4.0905659e-01   4.1289850e-01   4.1650313e-01   4.1985968e-01   4.2296697e-01   4.2581746e-01   4.2840334e-01   4.3071751e-01   4.3275355e-01   4.3450575e-01   4.3596909e-01   4.3713923e-01   4.3801254e-01   4.3858608e-01   4.3885761e-01   4.3882558e-01   4.3848912e-01   4.3784807e-01   4.3690297e-01   4.3565505e-01   4.3410623e-01   4.3225911e-01   4.3011702e-01   4.2768396e-01   4.2496462e-01   4.2196440e-01   4.1868939e-01   4.1514636e-01   4.1134281e-01   4.0728689e-01   4.0298747e-01   3.9845412e-01   3.9369709e-01   3.8872733e-01   3.8355648e-01   3.7819688e-01   3.7266157e-01   3.6696426e-01   3.6111938e-01   3.5514206e-01   3.4904809e-01   3.4285398e-01   3.3657693e-01   3.3023485e-01   3.2383471e-01   3.1737075e-01   3.1085635e-01   3.0430493e-01   2.9772942e-01   2.9114225e-01   2.8455537e-01   2.7798023e-01   2.7142781e-01   2.6490857e-01   2.5843250e-01   2.5200909e-01   2.4564735e-01   2.3935580e-01   2.3314246e-01   2.2701486e-01   2.2098004e-01   2.1504457e-01   2.0921450e-01   2.0349540e-01   1.9789237e-01   1.9240998e-01   1.8705236e-01   1.8182309e-01   1.7672532e-01   1.7176167e-01   1.6693428e-01   1.6224481e-01   1.5769441e-01   1.5328376e-01   1.4901304e-01   1.4488193e-01   1.4088965e-01   1.3712705e-01   1.3439145e-01   1.3266168e-01   1.3170381e-01   1.3131071e-01   1.3130205e-01   1.3152429e-01   1.3185071e-01   1.3218140e-01   1.3244322e-01   1.3258988e-01   1.3260184e-01   1.3248641e-01   1.3227767e-01   1.3203653e-01   1.3185068e-01   1.3176532e-01   1.3168657e-01   1.3160983e-01   1.3153531e-01   1.3146331e-01   1.3139423e-01   1.3132859e-01   1.3126698e-01   1.3121011e-01   1.3115879e-01   1.3111392e-01   1.3107651e-01   1.3104766e-01   1.3102859e-01   1.3102060e-01   1.3102502e-01   1.3103988e-01   1.3106621e-01   1.3110761e-01   1.3116784e-01   1.3125088e-01   1.3136087e-01   1.3150213e-01   1.3167917e-01   1.3189670e-01   1.3215958e-01   1.3247289e-01   1.3284186e-01   1.3327193e-01   1.3376871e-01   1.3433799e-01   1.3498576e-01   1.3571817e-01   1.3654158e-01   1.3746252e-01   1.3848769e-01   1.3962400e-01   1.4087853e-01   1.4225854e-01   1.4377148e-01   1.4542498e-01   1.4722686e-01   1.4918512e-01   1.5130793e-01   1.5360367e-01   1.5608088e-01   1.5874830e-01   1.6161485e-01   1.6468962e-01   1.6798189e-01   1.7150775e-01   1.7527341e-01   1.7927208e-01   1.8349593e-01   1.8793616e-01   1.9258299e-01   1.9742562e-01   2.0245226e-01   2.0765016e-01   2.1300554e-01   2.1850364e-01   2.2412871e-01   2.2986401e-01   2.3569180e-01   2.4159334e-01   2.4754891e-01   2.5353780e-01   2.5953830e-01   2.6552770e-01   2.7148231e-01   2.7737745e-01   2.8318742e-01   2.8888557e-01   2.9444421e-01   2.9983470e-01   3.0502737e-01   3.0999159e-01   3.1469571e-01   3.1910711e-01   3.2319216e-01   3.2691625e-01   3.3024376e-01   3.3313809e-01   3.3556165e-01   3.3748428e-01   3.3890588e-01   3.3982955e-01   3.4025955e-01   3.4020153e-01   3.3966252e-01   3.3865091e-01   3.3717646e-01   3.3525032e-01   3.3288499e-01   3.3009436e-01   3.2689369e-01   3.2329961e-01   3.1933013e-01   3.1500463e-01   3.1034385e-01   3.0536993e-01   3.0010635e-01   2.9457800e-01   2.8881112e-01   2.8283332e-01   2.7667359e-01   2.7036230e-01   2.6393119e-01   2.5741336e-01   2.5084330e-01   2.4425687e-01   2.3769130e-01   2.3118518e-01   2.2477850e-01   2.1850575e-01   2.1232403e-01   2.0625083e-01   2.0032298e-01   1.9456981e-01   1.8901314e-01   1.8366732e-01   1.7853917e-01   1.7362803e-01   1.6892573e-01   1.6441660e-01   1.6007747e-01   1.5587769e-01   1.5177908e-01   1.4773599e-01   1.4369524e-01   1.3959617e-01   1.3537063e-01   1.3094294e-01   1.2622995e-01   1.2114099e-01   1.1557790e-01   1.0944860e-01   1.0270615e-01   9.5251372e-02   8.7028377e-02   7.8038631e-02   6.8340964e-02   5.8051570e-02   4.7344006e-02   3.6449190e-02   2.5655403e-02   1.5308289e-02   5.8108546e-03  -2.4078169e-03  -8.9158087e-03  -1.3111470e-02  -1.4418091e-02  -1.2301692e-02  -6.2710231e-03   4.1224315e-03   1.9284458e-02   3.9578112e-02   6.5323715e-02   9.6798862e-02   1.3423841e-01   1.7781640e-01   2.2741279e-01   2.8259582e-01   3.4273994e-01   4.0702822e-01   4.7445238e-01   5.4381277e-01   6.1371838e-01   6.8258682e-01   7.4864437e-01   8.0992590e-01   8.6427495e-01   9.0938065e-01   9.4360709e-01   9.6619058e-01   9.7687335e-01   9.7592500e-01   9.6409952e-01   9.4166746e-01   9.0900080e-01   8.6684823e-01   8.1615850e-01   7.5807083e-01   6.9367674e-01   6.2442865e-01   5.5184325e-01   4.7731711e-01   4.0212662e-01   3.2742801e-01   2.5425736e-01   1.8353058e-01   1.1604343e-01   5.2471514e-02  -6.6297365e-03  -6.0825037e-02  -1.0979927e-01  -1.5334623e-01  -1.9131420e-01  -2.2374008e-01  -2.5072950e-01  -2.7242996e-01  -2.8903075e-01  -3.0076300e-01  -3.0789968e-01  -3.1075557e-01  -3.0968729e-01  -3.0509329e-01  -2.9741383e-01  -2.8713102e-01  -2.7476880e-01  -2.6084698e-01  -2.4574556e-01  -2.2989477e-01  -2.1368852e-01  -1.9747387e-01  -1.8155101e-01  -1.6617327e-01  -1.5154712e-01  -1.3783217e-01  -1.2514117e-01  -1.1353999e-01  -1.0304767e-01  -9.3636368e-02  -8.5231374e-02  -7.7765650e-02  -7.1192628e-02  -6.5401666e-02  -6.0288307e-02  -5.5755025e-02  -5.1711224e-02  -4.8073241e-02  -4.4764345e-02  -4.1714734e-02  -3.8861540e-02  -3.6148825e-02  -3.3527585e-02  -3.0955744e-02  -2.8398161e-02  -2.5826623e-02  -2.3219852e-02  -2.0563500e-02  -1.7850150e-02  -1.5075910e-02  -1.2219712e-02  -9.2742449e-03  -6.2361257e-03  -3.1022630e-03   1.3014089e-04   3.4635903e-03   6.9002964e-03   1.0442177e-02   1.4090857e-02   1.7847668e-02   2.1713649e-02   2.5689543e-02   2.9775803e-02   3.3972587e-02   3.8279761e-02   4.2696896e-02   4.7223272e-02   5.1857874e-02   5.6599395e-02   6.1446233e-02   6.6396494e-02   7.1447991e-02   7.6598244e-02   8.1844478e-02   8.7183626e-02   9.2612329e-02   9.8128445e-02   1.0373082e-01   1.0941455e-01   1.1517447e-01   1.2100527e-01   1.2690149e-01   1.3285751e-01   1.3886757e-01   1.4492577e-01   1.5102603e-01   1.5716217e-01   1.6332781e-01   1.6951645e-01   1.7572145e-01   1.8193599e-01   1.8815312e-01   1.9436574e-01   2.0056661e-01   2.0674832e-01   2.1290332e-01   2.1902392e-01   2.2510227e-01   2.3113037e-01   2.3710009e-01   2.4300313e-01   2.4883104e-01   2.5457525e-01   2.6022700e-01   2.6577741e-01   2.7121744e-01   2.7653791e-01   2.8172947e-01   2.8678266e-01   2.9168782e-01   2.9643813e-01   3.0103393e-01   3.0546653e-01   3.0972683e-01   3.1380616e-01   3.1769636e-01   3.2138969e-01   3.2487891e-01   3.2815721e-01   3.3121828e-01   3.3405624e-01   3.3666570e-01   3.3904172e-01   3.4117982e-01   3.4307600e-01   3.4472672e-01   3.4612889e-01   3.4727989e-01   3.4817758e-01   3.4882027e-01   3.4920672e-01   3.4933619e-01   3.4920837e-01   3.4882342e-01   3.4818199e-01   3.4728517e-01   3.4613450e-01   3.4473203e-01   3.4308023e-01   3.4118206e-01   3.3904093e-01   3.3666072e-01   3.3404577e-01   3.3120089e-01   3.2813135e-01   3.2484289e-01   3.2134170e-01   3.1763444e-01   3.1372825e-01   3.0963038e-01   3.0533879e-01   3.0085811e-01   2.9619802e-01   2.9136807e-01   2.8637773e-01   2.8123634e-01   2.7595313e-01   2.7053724e-01   2.6499770e-01   2.5934340e-01   2.5358317e-01   2.4772570e-01   2.4177957e-01   2.3575327e-01   2.2965517e-01   2.2349354e-01   2.1727654e-01   2.1101220e-01   2.0470847e-01   1.9837319e-01   1.9201408e-01   1.8563875e-01   1.7925470e-01   1.7286935e-01   1.6648998e-01   1.6012377e-01   1.5377780e-01   1.4745903e-01   1.4117432e-01   1.3493042e-01   1.2873398e-01   1.2259152e-01   1.1650948e-01   1.1049417e-01   1.0455179e-01   9.8688452e-02   9.2910146e-02   8.7221135e-02   8.1622524e-02   7.6117944e-02   7.0710882e-02   6.5404550e-02   6.0201878e-02   5.5105524e-02   5.0117863e-02   4.5240997e-02   4.0476747e-02   3.5826658e-02   3.1291999e-02   2.6873768e-02   2.2572795e-02   1.8389650e-02   1.4324671e-02   1.0377971e-02   6.5494494e-03   2.8388034e-03  -7.5446275e-04  -4.2310242e-03  -7.4625527e-03  -8.1025390e-03  -7.6544856e-03  -7.5579786e-03  -7.4696743e-03  -7.3553254e-03  -7.2407789e-03  -7.1259984e-03  -7.0108919e-03  -6.8954238e-03  -6.7795796e-03  -6.6633236e-03  -6.5465987e-03  -6.4293264e-03  -6.3114070e-03  -6.1927194e-03  -6.0731212e-03  -5.9524488e-03  -5.8305171e-03  -5.7071198e-03  -5.5820293e-03  -5.4549966e-03  -5.3257515e-03  -5.1940022e-03  -5.0594360e-03  -4.9212750e-03  -4.7771622e-03  -4.6270816e-03  -4.4712056e-03  -4.3095278e-03  -4.1418637e-03  -3.9678503e-03  -3.7869462e-03  -3.5984317e-03  -3.4014085e-03  -3.1948000e-03  -2.9773513e-03  -2.7476290e-03  -2.5040213e-03  -2.2447380e-03  -1.9678106e-03  -1.6710920e-03  -1.3522568e-03  -1.0088014e-03  -6.3804351e-04  -2.3712255e-04   1.9700045e-04   6.6754286e-04   1.1779004e-03   1.7316474e-03   2.3325363e-03   2.9844980e-03   3.6916420e-03   4.4582561e-03   5.2888064e-03   6.1879374e-03   7.1604721e-03   8.2114120e-03   9.3459367e-03   1.0569388e-02   1.1876033e-02   1.3266345e-02   1.4752011e-02   1.6343964e-02   1.8052381e-02   1.9886683e-02   2.1855537e-02   2.3966852e-02   2.6227784e-02   2.8644734e-02   3.1223345e-02   3.3968508e-02   3.6884356e-02   3.9974268e-02   4.3240866e-02   4.6686019e-02   5.0310839e-02   5.4115683e-02   5.8100153e-02   6.2263096e-02   6.6602602e-02   7.1116007e-02   7.5799891e-02   8.0650079e-02   8.5661641e-02   9.0828890e-02   9.6145387e-02   1.0160393e-01   1.0719658e-01   1.1291461e-01   1.1874858e-01   1.2468825e-01   1.3072267e-01   1.3684009e-01   1.4303172e-01   1.4929731e-01   1.5561172e-01   1.6194736e-01   1.6827746e-01   1.7457604e-01   1.8081791e-01   1.8697872e-01   1.9303488e-01   1.9896362e-01   2.0474297e-01   2.1035177e-01   2.1576965e-01   2.2097705e-01   2.2595520e-01   2.3068614e-01   2.3515272e-01   2.3933858e-01   2.4322816e-01   2.4680671e-01   2.5006028e-01   2.5297572e-01   2.5554068e-01   2.5774361e-01   2.5957377e-01   2.6102122e-01   2.6207681e-01   2.6273221e-01   2.6297988e-01   2.6281308e-01   2.6222588e-01   2.6119911e-01   2.5972667e-01   2.5782953e-01   2.5552851e-01   2.5284426e-01   2.4979728e-01   2.4640785e-01   2.4269611e-01   2.3868200e-01   2.3438531e-01   2.2982562e-01   2.2502235e-01   2.1999475e-01   2.1476188e-01   2.0934263e-01   2.0375572e-01   1.9801967e-01   1.9215285e-01   1.8617344e-01   1.8009945e-01   1.7394870e-01   1.6773884e-01   1.6148735e-01   1.5521153e-01   1.4892849e-01   1.4265519e-01   1.3640840e-01   1.3020469e-01   1.2406049e-01   1.1799203e-01   1.1201538e-01   1.0614642e-01   1.0040085e-01   9.4794215e-02   8.9341856e-02   8.4058954e-02   7.8960384e-02   7.4030534e-02   6.9254537e-02   6.4634160e-02   6.0165962e-02   5.5841298e-02   5.1646314e-02   4.7561953e-02   4.3563949e-02   3.9622829e-02   3.5703916e-02   3.1767325e-02   2.7767966e-02   2.3655540e-02   1.9374544e-02   1.4864268e-02   1.0058796e-02   4.8870031e-03  -7.2743871e-04  -6.8383166e-03  -1.3468161e-02  -2.0689902e-02  -2.8546544e-02  -3.7047676e-02  -4.6169472e-02  -5.5854694e-02  -6.6012689e-02  -7.6519392e-02  -8.7217322e-02  -9.7915585e-02  -1.0838987e-01  -1.1838247e-01  -1.2760223e-01  -1.3572600e-01  -1.4249202e-01  -1.4752703e-01  -1.5039785e-01  -1.5070030e-01  -1.4805921e-01  -1.4212841e-01  -1.3259073e-01  -1.1915800e-01  -1.0157107e-01  -7.9599765e-02  -5.3042936e-02  -2.1728426e-02   1.4486917e-02   5.5717244e-02   1.0204738e-01   1.5339011e-01   2.0937075e-01   2.6949789e-01   3.3317760e-01   3.9971343e-01   4.6830638e-01   5.3805496e-01   6.0795514e-01   6.7690037e-01   7.4368157e-01   8.0698713e-01   8.6540295e-01   9.1741236e-01   9.6138612e-01   9.9584394e-01   1.0205545e+00   1.0355974e+00   1.0411128e+00   1.0373007e+00   1.0244215e+00   1.0027957e+00   9.7280427e-01   9.3488806e-01   8.8954830e-01   8.3734642e-01   7.7890403e-01   7.1490298e-01   6.4608531e-01   5.7365545e-01   4.9939923e-01   4.2434037e-01   3.4939964e-01   2.7541877e-01   2.0316050e-01   1.3330853e-01   6.6467548e-02   3.1632183e-03  -5.6157813e-02  -1.1112792e-01  -1.6145850e-01  -2.0693997e-01  -2.4744176e-01  -2.8291233e-01  -3.1337916e-01  -3.3894874e-01  -3.5980658e-01  -3.7621723e-01  -3.8827643e-01  -3.9599068e-01  -3.9976585e-01  -4.0000000e-01  -3.9707788e-01  -3.9137094e-01  -3.8323730e-01  -3.7302180e-01  -3.6105594e-01  -3.4765793e-01  -3.3313268e-01  -3.1777176e-01  -3.0185345e-01  -2.8564271e-01  -2.6939122e-01  -2.5333731e-01  -2.3770603e-01  -2.2270910e-01  -2.0854495e-01  -1.9539382e-01  -1.8330368e-01  -1.7221970e-01  -1.6208744e-01  -1.5285203e-01  -1.4445810e-01  -1.3684982e-01  -1.2997086e-01  -1.2376445e-01  -1.1817333e-01  -1.1313974e-01  -1.0860548e-01  -1.0451187e-01  -1.0079973e-01  -9.7409433e-02  -9.4280862e-02  -9.1353428e-02  -8.8566068e-02  -8.5857244e-02  -8.3171285e-02  -8.0499543e-02  -7.7831329e-02  -7.5153230e-02  -7.2452782e-02  -6.9718468e-02  -6.6939713e-02  -6.4106892e-02  -6.1211323e-02  -5.8245272e-02  -5.5201949e-02  -5.2075512e-02  -4.8861064e-02  -4.5554654e-02  -4.2153276e-02  -3.8654872e-02  -3.5058328e-02  -3.1363478e-02  -2.7571100e-02  -2.3682918e-02  -1.9701604e-02  -1.5628596e-02  -1.1459716e-02  -7.1944747e-03  -2.8328912e-03   1.6248218e-03   6.1782569e-03   1.0826812e-02   1.5569690e-02   2.0405899e-02   2.5334253e-02   3.0353371e-02   3.5461677e-02   4.0657401e-02   4.5938578e-02   5.1303047e-02   5.6748456e-02   6.2272253e-02   6.7871696e-02   7.3543845e-02   7.9285568e-02   8.5093536e-02   9.0964226e-02   9.6893923e-02   1.0287871e-01   1.0891449e-01   1.1499695e-01   1.2112160e-01   1.2728374e-01   1.3347850e-01   1.3970082e-01   1.4594918e-01   1.5221969e-01   1.5850540e-01   1.6479939e-01   1.7109478e-01   1.7738475e-01   1.8366248e-01   1.8992124e-01   1.9615433e-01   2.0235506e-01   2.0851682e-01   2.1463303e-01   2.2069715e-01   2.2670268e-01   2.3264317e-01   2.3851220e-01   2.4430340e-01   2.5001045e-01   2.5562706e-01   2.6114699e-01   2.6656403e-01   2.7187202e-01   2.7706485e-01   2.8213643e-01   2.8708075e-01   2.9189180e-01   2.9656365e-01   3.0109037e-01   3.0546611e-01   3.0968504e-01   3.1374139e-01   3.1762942e-01   3.2134343e-01   3.2487776e-01   3.2822682e-01   3.3138501e-01   3.3434683e-01   3.3710697e-01   3.3966291e-01   3.4201199e-01   3.4415129e-01   3.4607814e-01   3.4779017e-01   3.4928524e-01   3.5056150e-01   3.5161735e-01   3.5245147e-01   3.5306278e-01   3.5345050e-01   3.5361409e-01   3.5355330e-01   3.5326811e-01   3.5275879e-01   3.5202589e-01   3.5107018e-01   3.4989275e-01   3.4849491e-01   3.4687826e-01   3.4504466e-01   3.4299624e-01   3.4073539e-01   3.3826477e-01   3.3558729e-01   3.3270615e-01   3.2962480e-01   3.2634697e-01   3.2287663e-01   3.1921805e-01   3.1537573e-01   3.1135446e-01   3.0715929e-01   3.0279553e-01   2.9826876e-01   2.9358483e-01   2.8874985e-01   2.8377019e-01   2.7865251e-01   2.7340370e-01   2.6803094e-01   2.6254167e-01   2.5694360e-01   2.5124470e-01   2.4545320e-01   2.3957761e-01   2.3362670e-01   2.2760949e-01   2.2153529e-01   2.1541352e-01   2.0924190e-01   2.0302112e-01   1.9675879e-01   1.9046229e-01   1.8413883e-01   1.7779543e-01   1.7143891e-01   1.6507589e-01   1.5871280e-01   1.5235589e-01   1.4601121e-01   1.3968459e-01   1.3338172e-01   1.2710804e-01   1.2086884e-01   1.1466919e-01   1.0851398e-01   1.0240791e-01   9.6355474e-02   9.0360979e-02   8.4428539e-02   7.8562074e-02   7.2765312e-02   6.7041785e-02   6.1394834e-02   5.5827607e-02   5.0343057e-02   4.4943945e-02   3.9632838e-02   3.4412109e-02   2.9283939e-02   2.4250316e-02   1.9313034e-02   1.4473694e-02   9.7337020e-03   5.0942734e-03   5.5642872e-04  -3.8790044e-03  -8.2113917e-03  -1.2440292e-02  -1.6565373e-02  -2.0585721e-02  -2.4501068e-02  -2.8311471e-02  -3.2017120e-02  -3.5618338e-02  -3.9115584e-02  -4.2509449e-02  -4.5285215e-02  -4.6283168e-02  -4.6208242e-02  -4.5693905e-02  -4.5167476e-02  -4.4850127e-02  -4.4756880e-02  -4.4696607e-02  -4.4523545e-02  -4.4350146e-02  -4.4176662e-02  -4.4003051e-02  -4.3829263e-02  -4.3655243e-02  -4.3480900e-02  -4.3305454e-02  -4.3128771e-02  -4.2951059e-02  -4.2772471e-02  -4.2593112e-02  -4.2413032e-02  -4.2232232e-02  -4.2050661e-02  -4.1868216e-02  -4.1684741e-02  -4.1500031e-02  -4.1313828e-02  -4.1125823e-02  -4.0935654e-02  -4.0742910e-02  -4.0547126e-02  -4.0347787e-02  -4.0144325e-02  -3.9936122e-02  -3.9722508e-02  -3.9502760e-02  -3.9276104e-02  -3.9041717e-02  -3.8798721e-02  -3.8546188e-02  -3.8283138e-02  -3.8008540e-02  -3.7721311e-02  -3.7420316e-02  -3.7104369e-02  -3.6772234e-02  -3.6422619e-02  -3.6054185e-02  -3.5667010e-02  -3.5265702e-02  -3.4847066e-02  -3.4406883e-02  -3.3940961e-02  -3.3445135e-02  -3.2915269e-02  -3.2347254e-02  -3.1737007e-02  -3.1080473e-02  -3.0373626e-02  -2.9612465e-02  -2.8793018e-02  -2.7911339e-02  -2.6963510e-02  -2.5945642e-02  -2.4853871e-02  -2.3684362e-02  -2.2433305e-02  -2.1096921e-02  -1.9671455e-02  -1.8153182e-02  -1.6538403e-02  -1.4823446e-02  -1.3004668e-02  -1.1078451e-02  -9.0412069e-03  -6.8893734e-03  -4.6194160e-03  -2.2278277e-03   2.8887126e-04   2.9341332e-03   5.7113831e-03   8.6240185e-03   1.1675410e-02   1.4868899e-02   1.8207803e-02   2.1695408e-02   2.5334977e-02   2.9129741e-02   3.3082907e-02   3.7197653e-02   4.1477131e-02   4.5924702e-02   5.0541552e-02   5.5322188e-02   6.0260094e-02   6.5348348e-02   7.0579625e-02   7.5946192e-02   8.1439912e-02   8.7052244e-02   9.2774238e-02   9.8596542e-02   1.0450940e-01   1.1050264e-01   1.1656570e-01   1.2268761e-01   1.2885698e-01   1.3506202e-01   1.4129056e-01   1.4752998e-01   1.5376730e-01   1.5998910e-01   1.6618157e-01   1.7233049e-01   1.7842125e-01   1.8443881e-01   1.9036774e-01   1.9619220e-01   2.0189594e-01   2.0746233e-01   2.1287429e-01   2.1811438e-01   2.2316472e-01   2.2800705e-01   2.3262268e-01   2.3699255e-01   2.4109715e-01   2.4491660e-01   2.4843060e-01   2.5162276e-01   2.5449036e-01   2.5702698e-01   2.5922667e-01   2.6108435e-01   2.6259586e-01   2.6375793e-01   2.6456822e-01   2.6502527e-01   2.6512853e-01   2.6487836e-01   2.6427601e-01   2.6332365e-01   2.6202435e-01   2.6038207e-01   2.5840168e-01   2.5608897e-01   2.5345062e-01   2.5049421e-01   2.4722822e-01   2.4366206e-01   2.3980602e-01   2.3567129e-01   2.3126998e-01   2.2661510e-01   2.2172056e-01   2.1660117e-01   2.1127265e-01   2.0575162e-01   2.0005561e-01   1.9420305e-01   1.8821327e-01   1.8210651e-01   1.7590390e-01   1.6962750e-01   1.6330025e-01   1.5694600e-01   1.5058950e-01   1.4422329e-01   1.3783402e-01   1.3144757e-01   1.2508783e-01   1.1877661e-01   1.1253362e-01   1.0637653e-01   1.0032091e-01   9.4380239e-02   8.8565944e-02   8.2887358e-02   7.7351738e-02   7.1964265e-02   6.6728037e-02   6.1644078e-02   5.6711331e-02   5.1926660e-02   4.7284853e-02   4.2778617e-02   3.8398581e-02   3.4133297e-02   2.9969236e-02   2.5890792e-02   2.1880281e-02   1.7917938e-02   1.3981923e-02   1.0048315e-02   6.0911147e-03   2.0822445e-03  -2.0084515e-03  -6.2132078e-03  -1.0561596e-02  -1.5068006e-02  -1.9824130e-02  -2.4923102e-02  -3.0441774e-02  -3.6440716e-02  -4.2964218e-02  -5.0040285e-02  -5.7680641e-02  -6.5880729e-02  -7.4619709e-02  -8.3860460e-02  -9.3549578e-02  -1.0361738e-01  -1.1397789e-01  -1.2452887e-01  -1.3515178e-01  -1.4571215e-01  -1.5608430e-01  -1.6602366e-01  -1.7523137e-01  -1.8341484e-01  -1.9028773e-01  -1.9556995e-01  -1.9898768e-01  -2.0027334e-01  -1.9916561e-01  -1.9540942e-01  -1.8875596e-01  -1.7896268e-01  -1.6579327e-01  -1.4901769e-01  -1.2841216e-01  -1.0375912e-01  -7.4847313e-02  -4.1565529e-02  -3.9402557e-03   3.8113533e-02   8.4592216e-02   1.3539664e-01   1.9033212e-01   2.4910843e-01   3.1133982e-01   3.7654502e-01   4.4414719e-01   5.1347400e-01   5.8375756e-01   6.5413446e-01   7.2364574e-01   7.9123693e-01   8.5575935e-01   9.1622189e-01   9.7155676e-01   1.0206468e+00   1.0625374e+00   1.0964364e+00   1.1217142e+00   1.1379037e+00   1.1447003e+00   1.1419619e+00   1.1297089e+00   1.1081243e+00   1.0775535e+00   1.0385044e+00   9.9164744e-01   9.3781565e-01   8.7800448e-01   8.1337189e-01   7.4500847e-01   6.7344152e-01   5.9966722e-01   5.2465774e-01   4.4931108e-01   3.7445107e-01   3.0082742e-01   2.2911566e-01   1.5991716e-01   9.3759146e-02   3.1094682e-02  -2.7697325e-02  -8.2312120e-02  -1.3251911e-01  -1.7816185e-01  -2.1915806e-01  -2.5549961e-01  -2.8725166e-01  -3.1435945e-01  -3.3686519e-01  -3.5497372e-01  -3.6889996e-01  -3.7886887e-01  -3.8511550e-01  -3.8788493e-01  -3.8743233e-01  -3.8402291e-01  -3.7793196e-01  -3.6944482e-01  -3.5885689e-01  -3.4647363e-01  -3.3261058e-01  -3.1759332e-01  -3.0175751e-01  -2.8544884e-01  -2.6902310e-01  -2.5278611e-01  -2.3687739e-01  -2.2142424e-01  -2.0653835e-01  -1.9231517e-01  -1.7883388e-01  -1.6615742e-01  -1.5433247e-01  -1.4338948e-01  -1.3334262e-01  -1.2418984e-01  -1.1591281e-01  -1.0847697e-01  -1.0183149e-01  -9.5909314e-02  -9.0627112e-02  -8.5885315e-02  -8.1568099e-02  -7.7573560e-02  -7.3897200e-02  -7.0495612e-02  -6.7323310e-02  -6.4338006e-02  -6.1500603e-02  -5.8775200e-02  -5.6129087e-02  -5.3532752e-02  -5.0959874e-02  -4.8387327e-02  -4.5795178e-02  -4.3166688e-02  -4.0488314e-02  -3.7749705e-02  -3.4943704e-02  -3.2066347e-02  -2.9116868e-02  -2.6097690e-02  -2.3010735e-02  -1.9843371e-02  -1.6592280e-02  -1.3255956e-02  -9.8330469e-03  -6.3223589e-03  -2.7228528e-03   9.6635414e-04   4.7459888e-03   8.6166220e-03   1.2578668e-02   1.6632387e-02   2.0777881e-02   2.5015096e-02   2.9343823e-02   3.3763698e-02   3.8274199e-02   4.2874648e-02   4.7564213e-02   5.2341904e-02   5.7206575e-02   6.2156927e-02   6.7191500e-02   7.2308683e-02   7.7506706e-02   8.2784702e-02   8.8141474e-02   9.3574285e-02   9.9080283e-02   1.0465650e-01   1.1029986e-01   1.1600716e-01   1.2177509e-01   1.2760023e-01   1.3347905e-01   1.3940789e-01   1.4538298e-01   1.5140045e-01   1.5745629e-01   1.6354641e-01   1.6966658e-01   1.7581245e-01   1.8197959e-01   1.8816342e-01   1.9435927e-01   2.0056233e-01   2.0676771e-01   2.1297039e-01   2.1916521e-01   2.2534694e-01   2.3151021e-01   2.3764954e-01   2.4375934e-01   2.4983390e-01   2.5586740e-01   2.6185390e-01   2.6778736e-01   2.7366161e-01   2.7947036e-01   2.8520724e-01   2.9086573e-01   2.9643921e-01   3.0192095e-01   3.0730410e-01   3.1258169e-01   3.1775073e-01   3.2281174e-01   3.2775755e-01   3.3258104e-01   3.3727534e-01   3.4183387e-01   3.4625030e-01   3.5051856e-01   3.5463284e-01   3.5858761e-01   3.6237759e-01   3.6599775e-01   3.6944336e-01   3.7270991e-01   3.7579319e-01   3.7868923e-01   3.8139433e-01   3.8390506e-01   3.8621824e-01   3.8833095e-01   3.9024057e-01   3.9194469e-01   3.9344119e-01   3.9472823e-01   3.9580420e-01   3.9666777e-01   3.9731786e-01   3.9775369e-01   3.9797469e-01   3.9798060e-01   3.9777139e-01   3.9734731e-01   3.9670887e-01   3.9585684e-01   3.9479226e-01   3.9351641e-01   3.9203088e-01   3.9033747e-01   3.8843828e-01   3.8633565e-01   3.8403220e-01   3.8153081e-01   3.7883461e-01   3.7594701e-01   3.7287167e-01   3.6960951e-01   3.6615745e-01   3.6252112e-01   3.5870662e-01   3.5472003e-01   3.5056740e-01   3.4625478e-01   3.4178817e-01   3.3717358e-01   3.3241698e-01   3.2752431e-01   3.2250151e-01   3.1735450e-01   3.1208916e-01   3.0671135e-01   3.0122693e-01   2.9564172e-01   2.8996153e-01   2.8419214e-01   2.7833932e-01   2.7240880e-01   2.6640631e-01   2.6033754e-01   2.5420818e-01   2.4802389e-01   2.4179029e-01   2.3551301e-01   2.2919764e-01   2.2284975e-01   2.1647490e-01   2.1007862e-01   2.0366642e-01   1.9724378e-01   1.9081618e-01   1.8438906e-01   1.7796786e-01   1.7155796e-01   1.6516477e-01   1.5879364e-01   1.5244991e-01   1.4613890e-01   1.3986592e-01   1.3363625e-01   1.2745513e-01   1.2132781e-01   1.1525951e-01   1.0925533e-01   1.0331609e-01   9.7443084e-02   9.1639500e-02   8.5908373e-02   8.0252581e-02   7.4674841e-02   6.9177712e-02   6.3763596e-02   5.8434736e-02   5.3193216e-02   4.8040965e-02   4.2979750e-02   3.8011181e-02   3.3136713e-02   2.8357637e-02   2.3675092e-02   1.9090054e-02   1.4603343e-02   1.0215621e-02   5.9273917e-03   1.7389997e-03  -2.3493677e-03  -6.3376815e-03  -1.0226071e-02  -1.4014823e-02  -1.7704384e-02  -2.1295358e-02  -2.4788422e-02  -2.8183755e-02  -3.1217261e-02  -3.1165365e-02  -3.1053715e-02  -3.0946065e-02  -3.0838560e-02  -3.0731178e-02  -3.0623898e-02  -3.0516701e-02  -3.0409561e-02  -3.0302448e-02  -3.0195326e-02  -3.0088156e-02  -2.9980891e-02  -2.9873480e-02  -2.9765866e-02  -2.9657989e-02  -2.9549751e-02  -2.9440243e-02  -2.9329269e-02  -2.9217057e-02  -2.9103781e-02  -2.8989561e-02  -2.8874470e-02  -2.8758524e-02  -2.8641689e-02  -2.8523879e-02  -2.8404956e-02  -2.8284730e-02  -2.8162956e-02  -2.8039342e-02  -2.7913540e-02  -2.7785151e-02  -2.7653724e-02  -2.7518757e-02  -2.7379693e-02  -2.7235926e-02  -2.7086796e-02  -2.6931591e-02  -2.6769549e-02  -2.6599852e-02  -2.6421634e-02  -2.6233975e-02  -2.6035901e-02  -2.5826390e-02  -2.5604365e-02  -2.5368698e-02  -2.5118207e-02  -2.4851661e-02  -2.4567775e-02  -2.4265212e-02  -2.3942583e-02  -2.3598447e-02  -2.3231312e-02  -2.2840494e-02  -2.2425564e-02  -2.1983389e-02  -2.1510719e-02  -2.1004285e-02  -2.0460791e-02  -1.9876920e-02  -1.9249335e-02  -1.8574673e-02  -1.7849551e-02  -1.7070561e-02  -1.6234275e-02  -1.5337241e-02  -1.4375986e-02  -1.3347013e-02  -1.2246802e-02  -1.1071813e-02  -9.8184818e-03  -8.4832214e-03  -7.0624232e-03  -5.5524556e-03  -3.9496649e-03  -2.2503746e-03  -4.5088580e-04   1.4525229e-03   3.4635953e-03   5.5860978e-03   7.8238193e-03   1.0180571e-02   1.2660187e-02   1.5266523e-02   1.8003459e-02   2.0874896e-02   2.3884756e-02   2.7036988e-02   3.0335559e-02   3.3783983e-02   3.7379162e-02   4.1121155e-02   4.5011400e-02   4.9050694e-02   5.3239190e-02   5.7576402e-02   6.2061202e-02   6.6691820e-02   7.1465847e-02   7.6380229e-02   8.1431273e-02   8.6614645e-02   9.1925368e-02   9.7357824e-02   1.0290576e-01   1.0856226e-01   1.1431980e-01   1.2017019e-01   1.2610460e-01   1.3211358e-01   1.3818700e-01   1.4431414e-01   1.5048358e-01   1.5668331e-01   1.6290065e-01   1.6912229e-01   1.7533427e-01   1.8152200e-01   1.8767023e-01   1.9376309e-01   1.9978406e-01   2.0571598e-01   2.1154768e-01   2.1727687e-01   2.2288366e-01   2.2834816e-01   2.3365139e-01   2.3877536e-01   2.4370300e-01   2.4841821e-01   2.5290582e-01   2.5715164e-01   2.6114240e-01   2.6486578e-01   2.6831044e-01   2.7146595e-01   2.7432287e-01   2.7687267e-01   2.7910779e-01   2.8102163e-01   2.8260852e-01   2.8386374e-01   2.8478354e-01   2.8536509e-01   2.8560654e-01   2.8550697e-01   2.8506642e-01   2.8428586e-01   2.8316724e-01   2.8171344e-01   2.7992828e-01   2.7781656e-01   2.7538401e-01   2.7263730e-01   2.6958407e-01   2.6623021e-01   2.6256421e-01   2.5859981e-01   2.5435686e-01   2.4985475e-01   2.4511247e-01   2.4014856e-01   2.3498111e-01   2.2962779e-01   2.2410585e-01   2.1843208e-01   2.1262285e-01   2.0669409e-01   2.0066130e-01   1.9453953e-01   1.8834343e-01   1.8208718e-01   1.7578454e-01   1.6944883e-01   1.6309296e-01   1.5672937e-01   1.5037008e-01   1.4402668e-01   1.3771033e-01   1.3143175e-01   1.2520121e-01   1.1902856e-01   1.1292323e-01   1.0689418e-01   1.0094998e-01   9.5098720e-02   8.9348088e-02   8.3705324e-02   7.8177235e-02   7.2770196e-02   6.7490146e-02   6.2342589e-02   5.7332595e-02   5.2464800e-02   4.7743405e-02   4.3163765e-02   3.8708225e-02   3.4368306e-02   3.0132894e-02   2.5987912e-02   2.1916325e-02   1.7898137e-02   1.3910393e-02   9.9271779e-03   5.9196151e-03   1.8558691e-03  -2.2988558e-03  -6.5823155e-03  -1.1035226e-02  -1.5701263e-02  -2.0627062e-02  -2.5862220e-02  -3.1459293e-02  -3.7473796e-02  -4.3930978e-02  -5.0844547e-02  -5.8260005e-02  -6.6203410e-02  -7.4681055e-02  -8.3679478e-02  -9.3165455e-02  -1.0308600e-01  -1.1336838e-01  -1.2392008e-01  -1.3462884e-01  -1.4536264e-01  -1.5596970e-01  -1.6627848e-01  -1.7609768e-01  -1.8521623e-01  -1.9340332e-01  -2.0040836e-01  -2.0596102e-01  -2.0989367e-01  -2.1198810e-01  -2.1190272e-01  -2.0932394e-01  -2.0396615e-01  -1.9557175e-01  -1.8391112e-01  -1.6878266e-01  -1.5001273e-01  -1.2745570e-01  -1.0099392e-01  -7.0537757e-02  -3.6025551e-02   2.5763578e-03   4.5273637e-02   9.2043960e-02   1.4283701e-01   1.9757447e-01   2.5623654e-01   3.1872193e-01   3.8428216e-01   4.5212285e-01   5.2144860e-01   5.9146291e-01   6.6136826e-01   7.3036604e-01   7.9765660e-01   8.6243922e-01   9.2391213e-01   9.8127248e-01   1.0337164e+00   1.0804389e+00   1.1206341e+00   1.1534947e+00   1.1782128e+00   1.1939790e+00   1.2000000e+00   1.1960315e+00   1.1825104e+00   1.1599536e+00   1.1289190e+00   1.0900066e+00   1.0438577e+00   9.9115510e-01   9.3262338e-01   8.6902855e-01   8.0117824e-01   7.2992163e-01   6.5614946e-01   5.8079407e-01   5.0482933e-01   4.2927071e-01   3.5517524e-01   2.8362232e-01   2.1504739e-01   1.4971756e-01   8.8016706e-02   3.0273096e-02  -2.3240593e-02  -7.2307285e-02  -1.1676551e-01  -1.5650939e-01  -1.9148865e-01  -2.2170863e-01  -2.4723026e-01  -2.6817005e-01  -2.8470015e-01  -2.9704768e-01  -3.0532306e-01  -3.0974137e-01  -3.1066505e-01  -3.0844738e-01  -3.0343247e-01  -2.9595530e-01  -2.8634166e-01  -2.7490819e-01  -2.6196238e-01  -2.4780255e-01  -2.3271786e-01  -2.1698832e-01  -2.0088478e-01  -1.8466892e-01  -1.6859327e-01  -1.5290120e-01  -1.3782690e-01  -1.2356742e-01  -1.1017723e-01  -9.7665974e-02  -8.6036292e-02  -7.5283708e-02  -6.5396656e-02  -5.6356471e-02  -4.8137387e-02  -4.0706543e-02  -3.4023978e-02  -2.8042631e-02  -2.2708346e-02  -1.7959866e-02  -1.3728836e-02  -9.9398028e-03  -6.5102153e-03  -3.3504233e-03  -3.7012432e-04   2.4522922e-03   5.1403651e-03   7.7250565e-03   1.0234931e-02   1.2696157e-02   1.5132504e-02   1.7565346e-02   2.0013659e-02   2.2494022e-02   2.5020617e-02   2.7605229e-02   3.0257245e-02   3.2983657e-02   3.5789056e-02   3.8675640e-02   4.1643208e-02   4.4689161e-02   4.7815572e-02   5.1029694e-02   5.4332807e-02   5.7726012e-02   6.1210254e-02   6.4786320e-02   6.8454842e-02   7.2216291e-02   7.6070984e-02   8.0019079e-02   8.4060578e-02   8.8195324e-02   9.2423004e-02   9.6743148e-02   1.0115513e-01   1.0565816e-01   1.1025130e-01   1.1493344e-01   1.1970334e-01   1.2455958e-01   1.2950058e-01   1.3452541e-01   1.3963497e-01   1.4482667e-01   1.5009741e-01   1.5544400e-01   1.6086316e-01   1.6635150e-01   1.7190553e-01   1.7752167e-01   1.8319622e-01   1.8892539e-01   1.9470530e-01   2.0053196e-01   2.0640128e-01   2.1230906e-01   2.1825101e-01   2.2422275e-01   2.3021978e-01   2.3623752e-01   2.4227126e-01   2.4831622e-01   2.5436751e-01   2.6042013e-01   2.6646898e-01   2.7250889e-01   2.7853454e-01   2.8454055e-01   2.9052143e-01   2.9647157e-01   3.0238529e-01   3.0825678e-01   3.1408016e-01   3.1984943e-01   3.2555848e-01   3.3120113e-01   3.3677108e-01   3.4226192e-01   3.4766717e-01   3.5298022e-01   3.5819438e-01   3.6330285e-01   3.6829873e-01   3.7317501e-01   3.7792461e-01   3.8254032e-01   3.8701485e-01   3.9134826e-01   3.9554006e-01   3.9958360e-01   4.0347253e-01   4.0720078e-01   4.1076258e-01   4.1415246e-01   4.1736522e-01   4.2039598e-01   4.2324013e-01   4.2589336e-01   4.2835165e-01   4.3061128e-01   4.3266880e-01   4.3452108e-01   4.3616527e-01   4.3759880e-01   4.3881941e-01   4.3982513e-01   4.4061427e-01   4.4118543e-01   4.4153753e-01   4.4166975e-01   4.4158157e-01   4.4127278e-01   4.4074344e-01   4.3999391e-01   4.3902485e-01   4.3783719e-01   4.3643218e-01   4.3481134e-01   4.3297649e-01   4.3092975e-01   4.2867352e-01   4.2621049e-01   4.2354365e-01   4.2067628e-01   4.1761196e-01   4.1435455e-01   4.1090819e-01   4.0727735e-01   4.0346675e-01   3.9948144e-01   3.9532673e-01   3.9100824e-01   3.8653187e-01   3.8190383e-01   3.7713061e-01   3.7221433e-01   3.6715211e-01   3.6195110e-01   3.5661873e-01   3.5116231e-01   3.4558907e-01   3.3990613e-01   3.3412052e-01   3.2823916e-01   3.2226889e-01   3.1621643e-01   3.1008841e-01   3.0389137e-01   2.9763173e-01   2.9131584e-01   2.8494993e-01   2.7854013e-01   2.7209249e-01   2.6561295e-01   2.5910734e-01   2.5258141e-01   2.4604080e-01   2.3949107e-01   2.3293764e-01   2.2638588e-01   2.1984102e-01   2.1330823e-01   2.0679255e-01   2.0029894e-01   1.9383224e-01   1.8739723e-01   1.8099854e-01   1.7464074e-01   1.6832829e-01   1.6206556e-01   1.5585679e-01   1.4970616e-01   1.4361773e-01   1.3759546e-01   1.3164323e-01   1.2576480e-01   1.1996384e-01   1.1424393e-01   1.0860852e-01   1.0305907e-01   9.7596538e-02   9.2223032e-02   8.6940477e-02   8.1750645e-02   7.6655141e-02   7.1655413e-02   6.6752743e-02   6.1948253e-02   5.7242902e-02   5.2637488e-02   4.8132646e-02   4.3728850e-02   3.9426412e-02   3.5225480e-02   3.1126048e-02   2.7128081e-02   2.3231401e-02   1.9435679e-02   1.5740472e-02   1.2145220e-02   8.5227975e-03   6.7432852e-03   6.7824250e-03   6.7541590e-03   6.7258483e-03   6.6975098e-03   6.6691638e-03   6.6408334e-03   6.6125450e-03   6.5843284e-03   6.5563363e-03   6.5290680e-03   6.5024358e-03   6.4763068e-03   6.4505791e-03   6.4251817e-03   6.4000746e-03   6.3752488e-03   6.3507262e-03   6.3265599e-03   6.3028337e-03   6.2796625e-03   6.2571921e-03   6.2355995e-03   6.2150923e-03   6.1959095e-03   6.1783207e-03   6.1626267e-03   6.1491592e-03   6.1382810e-03   6.1303856e-03   6.1258976e-03   6.1252728e-03   6.1289977e-03   6.1375899e-03   6.1515979e-03   6.1716011e-03   6.1982102e-03   6.2320665e-03   6.2738426e-03   6.3242417e-03   6.3839984e-03   6.4538779e-03   6.5346767e-03   6.6269712e-03   6.7303593e-03   6.8463582e-03   6.9768859e-03   7.1239369e-03   7.2895818e-03   7.4759676e-03   7.6853177e-03   7.9199317e-03   8.1821855e-03   8.4745315e-03   8.7994984e-03   9.1596910e-03   9.5577907e-03   9.9965551e-03   1.0478818e-02   1.1007490e-02   1.1585557e-02   1.2216083e-02   1.2902206e-02   1.3647142e-02   1.4454184e-02   1.5326699e-02   1.6268131e-02   1.7282002e-02   1.8371909e-02   1.9541526e-02   2.0794602e-02   2.2134963e-02   2.3566512e-02   2.5093227e-02   2.6719165e-02   2.8448456e-02   3.0285308e-02   3.2234005e-02   3.4298908e-02   3.6484454e-02   3.8795155e-02   4.1235601e-02   4.3810458e-02   4.6524468e-02   4.9382449e-02   5.2388881e-02   5.5540184e-02   5.8836681e-02   6.2281128e-02   6.5875617e-02   6.9621581e-02   7.3519789e-02   7.7570350e-02   8.1772710e-02   8.6125655e-02   9.0627309e-02   9.5275134e-02   1.0006593e-01   1.0499584e-01   1.1006033e-01   1.1525423e-01   1.2057168e-01   1.2600619e-01   1.3155057e-01   1.3719700e-01   1.4293700e-01   1.4876139e-01   1.5466038e-01   1.6062348e-01   1.6663955e-01   1.7269679e-01   1.7878274e-01   1.8488428e-01   1.9098762e-01   1.9707832e-01   2.0314127e-01   2.0916069e-01   2.1512016e-01   2.2100258e-01   2.2679020e-01   2.3246461e-01   2.3800768e-01   2.4341882e-01   2.4868461e-01   2.5378475e-01   2.5870000e-01   2.6341220e-01   2.6790423e-01   2.7216007e-01   2.7616475e-01   2.7990436e-01   2.8336606e-01   2.8653809e-01   2.8940973e-01   2.9197136e-01   2.9421440e-01   2.9613134e-01   2.9771575e-01   2.9896225e-01   2.9986654e-01   3.0042538e-01   3.0063659e-01   3.0049906e-01   3.0001276e-01   2.9917871e-01   2.9799901e-01   2.9647680e-01   2.9461632e-01   2.9242285e-01   2.8990276e-01   2.8706347e-01   2.8391346e-01   2.8046229e-01   2.7672059e-01   2.7270004e-01   2.6841119e-01   2.6384763e-01   2.5902454e-01   2.5396299e-01   2.4868349e-01   2.4320599e-01   2.3754989e-01   2.3173402e-01   2.2577668e-01   2.1969558e-01   2.1350791e-01   2.0723028e-01   2.0087874e-01   1.9446881e-01   1.8801543e-01   1.8153298e-01   1.7503532e-01   1.6853571e-01   1.6204688e-01   1.5558100e-01   1.4914967e-01   1.4276395e-01   1.3643435e-01   1.3017080e-01   1.2398269e-01   1.1787885e-01   1.1186755e-01   1.0595651e-01   1.0015290e-01   9.4463318e-02   8.8893815e-02   8.3449885e-02   7.8136465e-02   7.2957936e-02   6.7918124e-02   6.3020298e-02   5.8267170e-02   5.3650239e-02   4.9152850e-02   4.4766254e-02   4.0478269e-02   3.6273248e-02   3.2132071e-02   2.8032148e-02   2.3947420e-02   1.9848359e-02   1.5701964e-02   1.1471768e-02   7.1178320e-03   2.5967463e-03  -2.1383674e-03  -7.1378576e-03  -1.2455528e-02  -1.8111390e-02  -2.4148132e-02  -3.0637488e-02  -3.7632400e-02  -4.5167021e-02  -5.3256716e-02  -6.1898054e-02  -7.1068820e-02  -8.0728004e-02  -9.0815808e-02  -1.0125364e-01  -1.1194413e-01  -1.2277110e-01  -1.3359959e-01  -1.4427586e-01  -1.5462890e-01  -1.6462060e-01  -1.7403105e-01  -1.8250158e-01  -1.8969221e-01  -1.9528174e-01  -1.9896767e-01  -2.0046625e-01  -1.9951246e-01  -1.9586002e-01  -1.8928138e-01  -1.7956771e-01  -1.6652895e-01  -1.4999373e-01  -1.2980945e-01  -1.0584223e-01  -7.7976916e-02  -4.6117099e-02  -1.0185102e-02   2.9878019e-02   7.4112472e-02   1.2253973e-01   1.7516255e-01   2.3203114e-01   2.9295077e-01   3.5718417e-01   4.2396483e-01   4.9251834e-01   5.6206240e-01   6.3180682e-01   7.0095351e-01   7.6869648e-01   8.3422186e-01   8.9670786e-01   9.5532482e-01   1.0092352e+00   1.0575934e+00   1.0995462e+00   1.1342324e+00   1.1607827e+00   1.1783201e+00   1.1860491e+00   1.1838942e+00   1.1714192e+00   1.1485701e+00   1.1158972e+00   1.0744343e+00   1.0248619e+00   9.6811896e-01   9.0528867e-01   8.3752977e-01   7.6604701e-01   6.9202187e-01   6.1666940e-01   5.4110869e-01   4.6635357e-01   3.9331255e-01   3.2278887e-01   2.5548046e-01   1.9197998e-01   1.3277478e-01   7.8246937e-02   2.8673216e-02  -1.5774895e-02  -5.5031200e-02  -8.9130703e-02  -1.1805044e-01  -1.4187545e-01  -1.6079326e-01  -1.7501954e-01  -1.8479808e-01  -1.9040075e-01  -1.9212757e-01  -1.9030666e-01  -1.8529425e-01  -1.7747471e-01  -1.6726050e-01  -1.5509221e-01  -1.4143730e-01  -1.2668213e-01  -1.1117963e-01  -9.5287525e-02  -7.9323478e-02  -6.3565067e-02  -4.8249797e-02  -3.3575094e-02  -1.9698305e-02  -6.7367027e-03   5.2325201e-03   1.6172247e-02   2.6085440e-02   3.5014798e-02   4.2976608e-02   5.0024424e-02   5.6258145e-02   6.1772231e-02   6.6655698e-02   7.0992120e-02   7.4859629e-02   7.8330918e-02   8.1473235e-02   8.4348387e-02   8.7012740e-02   8.9517218e-02   9.1907301e-02   9.4223031e-02   9.6499005e-02   9.8764380e-02   1.0104287e-01   1.0335339e-01   1.0571754e-01   1.0814485e-01   1.1064063e-01   1.1320983e-01   1.1585706e-01   1.1858654e-01   1.2140218e-01   1.2430748e-01   1.2730563e-01   1.3039943e-01   1.3359134e-01   1.3688347e-01   1.4027755e-01   1.4377498e-01   1.4737677e-01   1.5108360e-01   1.5489580e-01   1.5881330e-01   1.6283573e-01   1.6696232e-01   1.7119195e-01   1.7552317e-01   1.7995414e-01   1.8448269e-01   1.8910642e-01   1.9382689e-01   1.9864330e-01   2.0355277e-01   2.0855224e-01   2.1363851e-01   2.1880820e-01   2.2405779e-01   2.2938357e-01   2.3478167e-01   2.4024809e-01   2.4577864e-01   2.5136897e-01   2.5701456e-01   2.6271075e-01   2.6845270e-01   2.7423543e-01   2.8005375e-01   2.8590237e-01   2.9177578e-01   2.9766835e-01   3.0357426e-01   3.0948755e-01   3.1540207e-01   3.2131154e-01   3.2720950e-01   3.3308932e-01   3.3894421e-01   3.4476724e-01   3.5055130e-01   3.5628911e-01   3.6197324e-01   3.6759609e-01   3.7314991e-01   3.7862678e-01   3.8401861e-01   3.8931715e-01   3.9451400e-01   3.9960059e-01   4.0456819e-01   4.0940789e-01   4.1411297e-01   4.1868687e-01   4.2312234e-01   4.2741062e-01   4.3154331e-01   4.3551243e-01   4.3931035e-01   4.4292985e-01   4.4636409e-01   4.4960661e-01   4.5265135e-01   4.5549262e-01   4.5812513e-01   4.6054398e-01   4.6274463e-01   4.6472296e-01   4.6647522e-01   4.6799803e-01   4.6928843e-01   4.7034383e-01   4.7116202e-01   4.7174118e-01   4.7207989e-01   4.7217710e-01   4.7203216e-01   4.7164478e-01   4.7101509e-01   4.7014359e-01   4.6903116e-01   4.6767908e-01   4.6608901e-01   4.6426300e-01   4.6220348e-01   4.5991328e-01   4.5739558e-01   4.5465400e-01   4.5169251e-01   4.4851547e-01   4.4512764e-01   4.4153416e-01   4.3774054e-01   4.3375271e-01   4.2957695e-01   4.2521996e-01   4.2068880e-01   4.1598243e-01   4.1110087e-01   4.0605306e-01   4.0084785e-01   3.9549394e-01   3.8999993e-01   3.8437431e-01   3.7862544e-01   3.7276160e-01   3.6679091e-01   3.6072142e-01   3.5456102e-01   3.4831753e-01   3.4199863e-01   3.3561189e-01   3.2916477e-01   3.2266462e-01   3.1611865e-01   3.0953399e-01   3.0291764e-01   2.9627648e-01   2.8961729e-01   2.8294672e-01   2.7627131e-01   2.6959751e-01   2.6293161e-01   2.5627983e-01   2.4964825e-01   2.4304284e-01   2.3646946e-01   2.2993385e-01   2.2344165e-01   2.1699837e-01   2.1060940e-01   2.0428005e-01   1.9801547e-01   1.9182074e-01   1.8570079e-01   1.7966045e-01   1.7370444e-01   1.6783736e-01   1.6206325e-01   1.5638256e-01   1.5079737e-01   1.4531019e-01   1.3992332e-01   1.3463886e-01   1.2945868e-01   1.2438443e-01   1.1941758e-01   1.1455936e-01   1.0981080e-01   1.0517270e-01   1.0064567e-01   9.6230096e-02   9.1926151e-02   8.7733796e-02   8.3652929e-02   8.0272411e-02   7.7979636e-02   7.6546016e-02   7.5766641e-02   7.5460278e-02   7.5469369e-02   7.5660033e-02   7.5922062e-02   7.6168929e-02   7.6337780e-02   7.6389437e-02   7.6308400e-02   7.6102843e-02   7.5804618e-02   7.5469253e-02   7.5175950e-02   7.4989735e-02   7.4818765e-02   7.4648543e-02   7.4479156e-02   7.4310712e-02   7.4143341e-02   7.3977196e-02   7.3812451e-02   7.3649304e-02   7.3487972e-02   7.3328697e-02   7.3171741e-02   7.3017389e-02   7.2866036e-02   7.2718828e-02   7.2575994e-02   7.2437588e-02   7.2303792e-02   7.2174921e-02   7.2051420e-02   7.1933863e-02   7.1822956e-02   7.1719533e-02   7.1624560e-02   7.1539132e-02   7.1464477e-02   7.1401948e-02   7.1353034e-02   7.1319351e-02   7.1302646e-02   7.1304795e-02   7.1327807e-02   7.1373818e-02   7.1445098e-02   7.1544043e-02   7.1673183e-02   7.1835176e-02   7.2032811e-02   7.2269008e-02   7.2546814e-02   7.2869411e-02   7.3240108e-02   7.3662346e-02   7.4139694e-02   7.4675853e-02   7.5274654e-02   7.5940058e-02   7.6676157e-02   7.7487172e-02   7.8377456e-02   7.9351489e-02   8.0413886e-02   8.1569387e-02   8.2822866e-02   8.4179327e-02   8.5643902e-02   8.7221855e-02   8.8918581e-02   9.0739602e-02   9.2690574e-02   9.4777280e-02   9.7005637e-02   9.9381689e-02   1.0191161e-01   1.0460171e-01   1.0745871e-01   1.1048595e-01   1.1368430e-01   1.1705399e-01   1.2059461e-01   1.2430509e-01   1.2818376e-01   1.3222827e-01   1.3643567e-01   1.4080234e-01   1.4532403e-01   1.4999587e-01   1.5481233e-01   1.5976724e-01   1.6485380e-01   1.7006458e-01   1.7539149e-01   1.8082582e-01   1.8635820e-01   1.9197865e-01   1.9767652e-01   2.0344055e-01   2.0925882e-01   2.1511878e-01   2.2100724e-01   2.2691037e-01   2.3281371e-01   2.3870214e-01   2.4455992e-01   2.5037067e-01   2.5611736e-01   2.6178234e-01   2.6734729e-01   2.7279329e-01   2.7810075e-01   2.8324946e-01   2.8821855e-01   2.9298654e-01   2.9753129e-01   3.0183003e-01   3.0585934e-01   3.0959518e-01   3.1301285e-01   3.1608704e-01   3.1880307e-01   3.2116758e-01   3.2317435e-01   3.2481771e-01   3.2609304e-01   3.2699680e-01   3.2752647e-01   3.2768062e-01   3.2745889e-01   3.2686194e-01   3.2589152e-01   3.2455043e-01   3.2284254e-01   3.2077276e-01   3.1834707e-01   3.1557251e-01   3.1245718e-01   3.0901025e-01   3.0524192e-01   3.0116347e-01   2.9678725e-01   2.9212665e-01   2.8719612e-01   2.8201118e-01   2.7658841e-01   2.7094544e-01   2.6510097e-01   2.5907474e-01   2.5288758e-01   2.4656136e-01   2.4011900e-01   2.3358450e-01   2.2698292e-01   2.2034037e-01   2.1368400e-01   2.0703302e-01   2.0034986e-01   1.9365341e-01   1.8697431e-01   1.8034040e-01   1.7377673e-01   1.6730556e-01   1.6094638e-01   1.5471585e-01   1.4862787e-01   1.4269354e-01   1.3692117e-01   1.3131628e-01   1.2588160e-01   1.2061707e-01   1.1551985e-01   1.1058428e-01   1.0580194e-01   1.0116161e-01   9.6649279e-02   9.2248138e-02   8.7938597e-02   8.3698276e-02   7.9502000e-02   7.5321806e-02   7.1126942e-02   6.6883862e-02   6.2556234e-02   5.8104933e-02   5.3488044e-02   4.8660862e-02   4.3575892e-02   3.8191803e-02   3.2439615e-02   2.6228211e-02   1.9488379e-02   1.2173227e-02   4.2581818e-03  -4.2590096e-03  -1.3358282e-02  -2.2997250e-02  -3.3111209e-02  -4.3613136e-02  -5.4393688e-02  -6.5321202e-02  -7.6241697e-02  -8.6993482e-02  -9.7325612e-02  -1.0693255e-01  -1.1550955e-01  -1.2275264e-01  -1.2835866e-01  -1.3202522e-01  -1.3345072e-01  -1.3233438e-01  -1.2837616e-01  -1.2127685e-01  -1.1073801e-01  -9.6461988e-02  -7.8154101e-02  -5.5686959e-02  -2.8854288e-02   2.5867148e-03   3.8781168e-02   7.9776505e-02   1.2552248e-01   1.7587114e-01   2.3057689e-01   2.8929640e-01   3.5158870e-01   4.1691510e-01   4.8463924e-01   5.5402808e-01   6.2428977e-01   6.9426596e-01   7.6269023e-01   8.2834327e-01   8.9005296e-01   9.4669430e-01   9.9718945e-01   1.0405077e+00   1.0756655e+00   1.1017265e+00   1.1180307e+00   1.1240370e+00   1.1184998e+00   1.1004676e+00   1.0704799e+00   1.0294533e+00   9.7847541e-01   9.1877302e-01   8.5239161e-01   7.8129668e-01   7.0729448e-01   6.3203199e-01   5.5699696e-01   4.8351787e-01   4.1276393e-01   3.4574512e-01   2.8331215e-01   2.2615646e-01   1.7481028e-01   1.2964712e-01   9.0826992e-02   5.8298401e-02   3.1933737e-02   1.1540071e-02  -3.1408462e-03  -1.2432578e-02  -1.6724006e-02  -1.6469329e-02  -1.2188063e-02  -4.4650414e-03   6.0495853e-03   1.8677828e-02   3.2893582e-02   4.8119236e-02   6.3826341e-02   7.9556726e-02   9.4922495e-02   1.0960603e-01   1.2335999e-01   1.3600731e-01   1.4744120e-01   1.5762515e-01   1.6659293e-01   1.7441822e-01   1.8114446e-01   1.8691069e-01   1.9185531e-01   1.9610662e-01   1.9978287e-01   2.0299220e-01   2.0583271e-01   2.0839241e-01   2.1074922e-01   2.1297101e-01   2.1511557e-01   2.1723059e-01   2.1935371e-01   2.2151250e-01   2.2372443e-01   2.2600961e-01   2.2838714e-01   2.3086229e-01   2.3343990e-01   2.3612438e-01   2.3891970e-01   2.4182938e-01   2.4485655e-01   2.4800385e-01   2.5127354e-01   2.5466742e-01   2.5818685e-01   2.6183278e-01   2.6560571e-01   2.6950570e-01   2.7353241e-01   2.7768502e-01   2.8196233e-01   2.8636265e-01   2.9088390e-01   2.9552355e-01   3.0027864e-01   3.0514578e-01   3.1012113e-01   3.1520044e-01   3.2037901e-01   3.2565171e-01   3.3101299e-01   3.3645685e-01   3.4197686e-01   3.4756617e-01   3.5321749e-01   3.5892307e-01   3.6467478e-01   3.7046400e-01   3.7628173e-01   3.8211849e-01   3.8796440e-01   3.9380913e-01   3.9964193e-01   4.0545159e-01   4.1122651e-01   4.1695461e-01   4.2262341e-01   4.2823077e-01   4.3378210e-01   4.3926184e-01   4.4465452e-01   4.4994527e-01   4.5511976e-01   4.6016426e-01   4.6506558e-01   4.6981115e-01   4.7438895e-01   4.7878752e-01   4.8299600e-01   4.8700410e-01   4.9080209e-01   4.9438082e-01   4.9773173e-01   5.0084681e-01   5.0371864e-01   5.0634038e-01   5.0870574e-01   5.1080903e-01   5.1264511e-01   5.1420945e-01   5.1549805e-01   5.1650751e-01   5.1723501e-01   5.1767830e-01   5.1783568e-01   5.1770605e-01   5.1728889e-01   5.1658423e-01   5.1559269e-01   5.1431546e-01   5.1275431e-01   5.1091158e-01   5.0879017e-01   5.0639359e-01   5.0372588e-01   5.0079152e-01   4.9758368e-01   4.9410466e-01   4.9036567e-01   4.8637788e-01   4.8215240e-01   4.7770026e-01   4.7303242e-01   4.6815981e-01   4.6309326e-01   4.5784355e-01   4.5242141e-01   4.4683748e-01   4.4110236e-01   4.3522657e-01   4.2922057e-01   4.2309476e-01   4.1685948e-01   4.1052500e-01   4.0410152e-01   3.9759918e-01   3.9102807e-01   3.8439820e-01   3.7771952e-01   3.7100193e-01   3.6425523e-01   3.5748920e-01   3.5071353e-01   3.4393785e-01   3.3717173e-01   3.3042467e-01   3.2370613e-01   3.1702546e-01   3.1039200e-01   3.0381498e-01   2.9730360e-01   2.9086697e-01   2.8451415e-01   2.7825414e-01   2.7209587e-01   2.6604201e-01   2.6009262e-01   2.5425233e-01   2.4852539e-01   2.4291568e-01   2.3742665e-01   2.3206140e-01   2.2682262e-01   2.2171263e-01   2.1673333e-01   2.1188626e-01   2.0717257e-01   2.0259301e-01   1.9814795e-01   1.9383736e-01   1.8969691e-01   1.8650136e-01   1.8436828e-01   1.8305773e-01   1.8235651e-01   1.8207815e-01   1.8206291e-01   1.8217777e-01   1.8231646e-01   1.8239944e-01   1.8237388e-01   1.8221372e-01   1.8191960e-01   1.8151890e-01   1.8106574e-01   1.8064097e-01   1.8032652e-01   1.8003716e-01   1.7974938e-01   1.7946332e-01   1.7917920e-01   1.7889729e-01   1.7861792e-01   1.7834152e-01   1.7806857e-01   1.7779962e-01   1.7753528e-01   1.7727624e-01   1.7702326e-01   1.7677716e-01   1.7653884e-01   1.7630849e-01   1.7607325e-01   1.7583215e-01   1.7559032e-01   1.7535291e-01   1.7512508e-01   1.7491198e-01   1.7471878e-01   1.7455065e-01   1.7441277e-01   1.7431033e-01   1.7424851e-01   1.7423253e-01   1.7426758e-01   1.7435888e-01   1.7451165e-01   1.7473112e-01   1.7502252e-01   1.7539110e-01   1.7584209e-01   1.7638076e-01   1.7701237e-01   1.7774218e-01   1.7857548e-01   1.7951754e-01   1.8057365e-01   1.8174911e-01   1.8304921e-01   1.8447928e-01   1.8604463e-01   1.8775057e-01   1.8960245e-01   1.9160559e-01   1.9376534e-01   1.9608706e-01   1.9857609e-01   2.0123781e-01   2.0407758e-01   2.0710078e-01   2.1031280e-01   2.1371902e-01   2.1732486e-01   2.2113570e-01   2.2515698e-01   2.2939409e-01   2.3386553e-01   2.3863232e-01   2.4367129e-01   2.4894767e-01   2.5442750e-01   2.6007767e-01   2.6586592e-01   2.7176081e-01   2.7773177e-01   2.8374903e-01   2.8978369e-01   2.9580768e-01   3.0179377e-01   3.0771556e-01   3.1354752e-01   3.1926493e-01   3.2484392e-01   3.3026146e-01   3.3549536e-01   3.4052427e-01   3.4532768e-01   3.4988591e-01   3.5418014e-01   3.5819238e-01   3.6190548e-01   3.6530312e-01   3.6836983e-01   3.7109099e-01   3.7345280e-01   3.7544230e-01   3.7704740e-01   3.7825681e-01   3.7906010e-01   3.7944769e-01   3.7941081e-01   3.7894157e-01   3.7803287e-01   3.7667851e-01   3.7487307e-01   3.7261201e-01   3.6989161e-01   3.6670901e-01   3.6305185e-01   3.5893664e-01   3.5440864e-01   3.4951136e-01   3.4428656e-01   3.3877426e-01   3.3301266e-01   3.2703825e-01   3.2088573e-01   3.1458802e-01   3.0817631e-01   3.0168000e-01   2.9512673e-01   2.8854238e-01   2.8195106e-01   2.7537511e-01   2.6883512e-01   2.6234990e-01   2.5593651e-01   2.4961023e-01   2.4338459e-01   2.3727133e-01   2.3128046e-01   2.2542019e-01   2.1969699e-01   2.1411556e-01   2.0867882e-01   2.0338794e-01   1.9824233e-01   1.9323962e-01   1.8837567e-01   1.8364461e-01   1.7903876e-01   1.7454870e-01   1.7016326e-01   1.6587302e-01   1.6169297e-01   1.5749950e-01   1.5314500e-01   1.4850138e-01   1.4346008e-01   1.3793209e-01   1.3184792e-01   1.2515763e-01   1.1783080e-01   1.0985657e-01   1.0124358e-01   9.2020045e-02   8.2233685e-02   7.1951771e-02   6.1261104e-02   5.0267289e-02   3.9075347e-02   2.8082709e-02   1.7794673e-02   8.7001393e-03   1.2716072e-03  -4.0348221e-03  -6.7794472e-03  -6.5389658e-03  -2.9064753e-03   4.5085279e-03   1.6080148e-02   3.2166089e-02   5.3107658e-02   7.9229759e-02   1.1084090e-01   1.4823319e-01   1.9155025e-01   2.4056576e-01   2.9491331e-01   3.5405998e-01   4.1730593e-01   4.8378436e-01   5.5246152e-01   6.2213673e-01   6.9144234e-01   7.5884376e-01   8.2263947e-01   8.8096098e-01   9.3177286e-01   9.7317582e-01   1.0041457e+00   1.0236342e+00   1.0308960e+00   1.0235044e+00   9.9887261e-01   9.5932318e-01   9.0757387e-01   8.4545841e-01   7.7585012e-01   7.0178081e-01   6.2618696e-01   5.5168446e-01   4.8048487e-01   4.1439541e-01   3.5481893e-01   3.0275398e-01   2.5879474e-01   2.2313104e-01   1.9558738e-01   1.7635787e-01   1.6474821e-01   1.5970430e-01   1.6021941e-01   1.6533412e-01   1.7413636e-01   1.8576141e-01   1.9939188e-01   2.1425774e-01   2.2963629e-01   2.4485218e-01   2.5927737e-01   2.7233121e-01   2.8352464e-01   2.9293367e-01   3.0080394e-01   3.0734155e-01   3.1274169e-01   3.1718866e-01   3.2085580e-01   3.2390557e-01   3.2648950e-01   3.2874821e-01   3.3081141e-01   3.3279786e-01   3.3481061e-01   3.3689265e-01   3.3906097e-01   3.4133172e-01   3.4371938e-01   3.4623673e-01   3.4889485e-01   3.5170313e-01   3.5466930e-01   3.5779937e-01   3.6109767e-01   3.6456685e-01   3.6820785e-01   3.7201995e-01   3.7600072e-01   3.8014604e-01   3.8445012e-01   3.8890783e-01   3.9352920e-01   3.9830818e-01   4.0323413e-01   4.0829603e-01   4.1348249e-01   4.1878175e-01   4.2418163e-01   4.2966962e-01   4.3523279e-01   4.4085786e-01   4.4653115e-01   4.5223862e-01   4.5796582e-01   4.6369796e-01   4.6941983e-01   4.7511588e-01   4.8077015e-01   4.8636630e-01   4.9188765e-01   4.9731709e-01   5.0263715e-01   5.0783000e-01   5.1287740e-01   5.1776076e-01   5.2246107e-01   5.2695898e-01   5.3123475e-01   5.3526825e-01   5.3903897e-01   5.4252603e-01   5.4570834e-01   5.4857673e-01   5.5112378e-01   5.5333816e-01   5.5520983e-01   5.5673003e-01   5.5789125e-01   5.5868730e-01   5.5911324e-01   5.5916543e-01   5.5884150e-01   5.5814036e-01   5.5706220e-01   5.5560848e-01   5.5378196e-01   5.5158666e-01   5.4902789e-01   5.4611223e-01   5.4284756e-01   5.3924302e-01   5.3530904e-01   5.3105731e-01   5.2650083e-01   5.2165386e-01   5.1653194e-01   5.1115189e-01   5.0553182e-01   4.9969111e-01   4.9365042e-01   4.8743169e-01   4.8105814e-01   4.7455427e-01   4.6794586e-01   4.6125997e-01   4.5452461e-01   4.4774266e-01   4.4092011e-01   4.3407611e-01   4.2722887e-01   4.2039576e-01   4.1359324e-01   4.0683691e-01   4.0014145e-01   3.9352068e-01   3.8698753e-01   3.8055405e-01   3.7423138e-01   3.6802980e-01   3.6195869e-01   3.5602656e-01   3.5024102e-01   3.4460880e-01   3.3911401e-01   3.3352782e-01   3.2792511e-01   3.2246196e-01   3.1727129e-01   3.1246286e-01   3.0812321e-01   3.0431575e-01   3.0108068e-01   2.9843505e-01   2.9637271e-01   2.9486435e-01   2.9385748e-01   2.9327643e-01   2.9302236e-01   2.9297324e-01   2.9298389e-01   2.9288593e-01   2.9254916e-01   2.9217413e-01   2.9180107e-01   2.9143003e-01   2.9106122e-01   2.9069504e-01   2.9033208e-01   2.8997309e-01   2.8961901e-01   2.8927098e-01   2.8893028e-01   2.8859840e-01   2.8827701e-01   2.8796794e-01   2.8767321e-01   2.8739504e-01   2.8712247e-01   2.8682874e-01   2.8652794e-01   2.8623592e-01   2.8596798e-01   2.8573895e-01   2.8556312e-01   2.8545429e-01   2.8542573e-01   2.8549023e-01   2.8566004e-01   2.8594693e-01   2.8636213e-01   2.8691638e-01   2.8761991e-01   2.8848243e-01   2.8951315e-01   2.9072077e-01   2.9211348e-01   2.9369894e-01   2.9548434e-01   2.9747633e-01   2.9968106e-01   3.0210418e-01   3.0475080e-01   3.0762555e-01   3.1073255e-01   3.1407540e-01   3.1765718e-01   3.2148048e-01   3.2554738e-01   3.2985944e-01   3.3441771e-01   3.3922273e-01   3.4427455e-01   3.4960714e-01   3.5524274e-01   3.6110761e-01   3.6712943e-01   3.7323932e-01   3.7937184e-01   3.8546496e-01   3.9146012e-01   3.9730216e-01   4.0293940e-01   4.0832355e-01   4.1340978e-01   4.1815670e-01   4.2252635e-01   4.2648419e-01   4.2999913e-01   4.3304353e-01   4.3559316e-01   4.3762724e-01   4.3912841e-01   4.4008277e-01   4.4047985e-01   4.4031259e-01   4.3957739e-01   4.3827409e-01   4.3640595e-01   4.3397967e-01   4.3100539e-01   4.2749668e-01   4.2347055e-01   4.1894584e-01   4.1390622e-01   4.0840472e-01   4.0252350e-01   3.9633927e-01   3.8992331e-01   3.8334145e-01   3.7665407e-01   3.6991612e-01   3.6317709e-01   3.5648105e-01   3.4986659e-01   3.4336689e-01   3.3700967e-01   3.3081721e-01   3.2480634e-01   3.1898846e-01   3.1336952e-01   3.0795002e-01   3.0272502e-01   2.9768413e-01   2.9281154e-01   2.8808597e-01   2.8348070e-01   2.7896359e-01   2.7449702e-01   2.7003794e-01   2.6563256e-01   2.6119688e-01   2.5635315e-01   2.5080546e-01   2.4434688e-01   2.3685939e-01   2.2831394e-01   2.1877041e-01   2.0837762e-01   1.9737336e-01   1.8608435e-01   1.7492625e-01   1.6440367e-01   1.5511018e-01   1.4772826e-01   1.4277621e-01   1.4041403e-01   1.4213508e-01   1.4928541e-01   1.6290907e-01   1.8374806e-01   2.1224237e-01   2.4852997e-01   2.9244684e-01   3.4352691e-01   4.0100209e-01   4.6380230e-01   5.3055542e-01   5.9958732e-01   6.6892184e-01   7.3622890e-01   7.9820305e-01   8.5165031e-01   8.9377402e-01   9.2217038e-01   9.3513083e-01   9.2857155e-01   9.0050315e-01   8.5340314e-01   7.9108219e-01   7.1954494e-01   6.4441412e-01   5.7040102e-01   5.0130543e-01   4.4001565e-01   3.8850852e-01   3.4794299e-01   3.2013039e-01   3.0383306e-01   2.9684128e-01   2.9714420e-01   3.0292985e-01   3.1258516e-01   3.2469593e-01   3.3804686e-01   3.5162152e-01   3.6460237e-01   3.7637077e-01   3.8650694e-01   3.9479000e-01   4.0119795e-01   4.0592686e-01   4.0973972e-01   4.1299907e-01   4.1582344e-01   4.1832245e-01   4.2059688e-01   4.2273856e-01   4.2483047e-01   4.2694669e-01   4.2915241e-01   4.3150390e-01   4.3404859e-01   4.3682498e-01   4.3986270e-01   4.4318248e-01   4.4679616e-01   4.5070669e-01   4.5490813e-01   4.5938565e-01   4.6411553e-01   4.6906515e-01   4.7419302e-01   4.7944873e-01   4.8478641e-01   4.9026585e-01   4.9587547e-01   5.0157927e-01   5.0734184e-01   5.1312833e-01   5.1890449e-01   5.2463660e-01   5.3029156e-01   5.3583681e-01   5.4124038e-01   5.4647087e-01   5.5149746e-01   5.5628989e-01   5.6081848e-01   5.6505413e-01   5.6896832e-01   5.7253307e-01   5.7572102e-01   5.7850534e-01   5.8085981e-01   5.8275877e-01   5.8417712e-01   5.8508894e-01   5.8547268e-01   5.8533101e-01   5.8467072e-01   5.8350036e-01   5.8183020e-01   5.7967226e-01   5.7704031e-01   5.7394982e-01   5.7041803e-01   5.6646391e-01   5.6210816e-01   5.5737322e-01   5.5228328e-01   5.4686425e-01   5.4114378e-01   5.3515127e-01   5.2891785e-01   5.2247639e-01   5.1586148e-01   5.0910948e-01   5.0225846e-01   4.9534825e-01   4.8842038e-01   4.8151817e-01   4.7468663e-01   4.6783300e-01   4.6087492e-01   4.5391689e-01   4.4705412e-01   4.4037206e-01   4.3394640e-01   4.2784306e-01   4.2211820e-01   4.1681824e-01   4.1197983e-01   4.0762984e-01   4.0378540e-01   4.0045388e-01   3.9763289e-01   3.9531027e-01   3.9346410e-01   3.9206271e-01   3.9106467e-01   3.9041878e-01   3.9006408e-01   3.8992986e-01   3.8993565e-01   3.8999121e-01   3.8999654e-01   3.8984188e-01   3.8945755e-01   3.8904696e-01   3.8864688e-01   3.8825586e-01   3.8787387e-01   3.8750228e-01   3.8714390e-01   3.8680295e-01   3.8648505e-01   3.8619725e-01   3.8594801e-01   3.8574723e-01   3.8560619e-01   3.8553762e-01   3.8555564e-01   3.8567580e-01   3.8591506e-01   3.8629181e-01   3.8682584e-01   3.8753837e-01   3.8845203e-01   3.8959087e-01   3.9100390e-01   3.9274516e-01   3.9482589e-01   3.9725248e-01   4.0002683e-01   4.0314635e-01   4.0660396e-01   4.1038807e-01   4.1448262e-01   4.1886704e-01   4.2351627e-01   4.2840076e-01   4.3348646e-01   4.3873484e-01   4.4410285e-01   4.4954298e-01   4.5500320e-01   4.6042701e-01   4.6575338e-01   4.7091683e-01   4.7584736e-01   4.8047049e-01   4.8470722e-01   4.8847410e-01   4.9168314e-01   4.9424190e-01   4.9605341e-01   4.9701622e-01   4.9702915e-01   4.9609505e-01   4.9428994e-01   4.9168582e-01   4.8835441e-01   4.8436721e-01   4.7979547e-01   4.7471022e-01   4.6918220e-01   4.6328196e-01   4.5707976e-01   4.5064565e-01   4.4404943e-01   4.3736065e-01   4.3064861e-01   4.2398239e-01   4.1743082e-01   4.1106246e-01   4.0494567e-01   3.9914853e-01   3.9373788e-01   3.8871159e-01   3.8397615e-01   3.7942016e-01   3.7491821e-01   3.7033091e-01   3.6550491e-01   3.6027288e-01   3.5445349e-01   3.4785146e-01   3.4025753e-01   3.3144843e-01   3.2109282e-01   3.0926086e-01   2.9728402e-01   2.8652763e-01   2.7829658e-01   2.7383527e-01   2.7432769e-01   2.8089736e-01   2.9460733e-01   3.1646023e-01   3.4739822e-01   3.8830299e-01   4.3968103e-01   4.9993782e-01   5.6665082e-01   6.3647196e-01   7.0504576e-01   7.6701029e-01   8.1668266e-01   8.4931196e-01   8.6143020e-01   8.4789561e-01   8.0680440e-01   7.4504859e-01   6.7251148e-01   5.9791089e-01   5.2864065e-01   4.7069699e-01   4.2699816e-01   3.9766762e-01   3.8194738e-01   3.7828129e-01   3.8431508e-01   3.9689630e-01   4.1211986e-01   4.2696848e-01   4.4022180e-01   4.5114111e-01   4.5940227e-01   4.6509570e-01   4.6872637e-01   4.7121384e-01   4.7340050e-01   4.7540747e-01   4.7740152e-01   4.7951624e-01   4.8185179e-01   4.8447496e-01   4.8741913e-01   4.9068428e-01   4.9423991e-01   4.9809116e-01   5.0224236e-01   5.0668115e-01   5.1139062e-01   5.1634929e-01   5.2153115e-01   5.2690561e-01   5.3243754e-01   5.3808726e-01   5.4381051e-01   5.4955850e-01   5.5527789e-01   5.6091075e-01   5.6639464e-01   5.7166253e-01   5.7664285e-01   5.8128756e-01   5.8555912e-01   5.8938568e-01   5.9270397e-01   5.9545966e-01   5.9760736e-01   5.9911064e-01   5.9994200e-01   6.0008288e-01   5.9952366e-01   5.9826368e-01   5.9631120e-01   5.9368345e-01   5.9040658e-01   5.8651570e-01   5.8205484e-01   5.7707698e-01   5.7164407e-01   5.6582697e-01   5.5970550e-01   5.5333334e-01   5.4673979e-01   5.3999320e-01   5.3315770e-01   5.2629285e-01   5.1945360e-01   5.1269030e-01   5.0604872e-01   4.9956999e-01   4.9329069e-01   4.8724277e-01   4.8145359e-01   4.7586413e-01   4.7028753e-01   4.6497202e-01   4.6014894e-01   4.5598666e-01   4.5259064e-01   4.5000337e-01   4.4820440e-01   4.4711036e-01   4.4657491e-01   4.4638877e-01   4.4627974e-01   4.4593840e-01   4.4549903e-01   4.4506861e-01   4.4464680e-01   4.4423599e-01   4.4384128e-01   4.4347048e-01   4.4313411e-01   4.4284544e-01   4.4262040e-01   4.4247767e-01   4.4243864e-01   4.4252741e-01   4.4274865e-01   4.4303757e-01   4.4348692e-01   4.4419857e-01   4.4525793e-01   4.4673391e-01   4.4867891e-01   4.5112887e-01   4.5410322e-01   4.5760491e-01   4.6162037e-01   4.6611958e-01   4.7105600e-01   4.7636661e-01   4.8197189e-01   4.8777584e-01   4.9366597e-01   4.9951328e-01   5.0517229e-01   5.1048104e-01   5.1526106e-01   5.1930692e-01   5.2246901e-01   5.2468683e-01   5.2591965e-01   5.2614539e-01   5.2536072e-01   5.2358099e-01   5.2084026e-01   5.1719130e-01   5.1270559e-01   5.0747330e-01   5.0160332e-01   4.9522323e-01   4.8847933e-01   4.8153661e-01   4.7457878e-01   4.6780826e-01   4.6143995e-01   4.5548341e-01   4.4993609e-01   4.4480460e-01   4.4002257e-01   4.3545074e-01   4.3087688e-01   4.2601585e-01   4.2050956e-01   4.1392700e-01   4.0576422e-01   3.9495673e-01   3.8235732e-01   3.7053971e-01   3.6187139e-01   3.5850902e-01   3.6239838e-01   3.7527446e-01   3.9866137e-01   4.3387240e-01   4.8200998e-01   5.4313292e-01   6.1182507e-01   6.8058949e-01   7.4084669e-01   7.8370297e-01   8.0667839e-01   7.8736922e-01   7.2174440e-01   6.3535825e-01   5.6149068e-01   4.9906465e-01   4.5415517e-01   4.2854120e-01   4.2101044e-01   4.2611806e-01   4.3825656e-01   4.5292458e-01   4.6672693e-01   4.7737459e-01   4.8421416e-01   4.8844799e-01   4.9113106e-01   4.9309309e-01   4.9493955e-01   4.9705169e-01   4.9958655e-01   5.0247789e-01   5.0568459e-01   5.0928501e-01   5.1328074e-01   5.1766124e-01   5.2240382e-01   5.2747368e-01   5.3282386e-01   5.3839530e-01   5.4411677e-01   5.4990494e-01   5.5566433e-01   5.6130175e-01   5.6678007e-01   5.7195670e-01   5.7668653e-01   5.8084408e-01   5.8432347e-01   5.8703848e-01   5.8892250e-01   5.8992854e-01   5.9002925e-01   5.8921691e-01   5.8750340e-01   5.8492026e-01   5.8151864e-01   5.7736930e-01   5.7256266e-01   5.6718839e-01   5.6127334e-01   5.5494205e-01   5.4832377e-01   5.4153652e-01   5.3468712e-01   5.2787117e-01   5.2117307e-01   5.1466600e-01   5.0841194e-01   5.0246165e-01   4.9685468e-01   4.9161938e-01   4.8677286e-01   4.8232104e-01   4.7839170e-01   4.7546892e-01   4.7341578e-01   4.7204222e-01   4.7118032e-01   4.7068430e-01   4.7043055e-01   4.7031758e-01   4.7026608e-01   4.7021887e-01   4.7014091e-01   4.7001934e-01   4.6986342e-01   4.6970458e-01   4.6959638e-01   4.6961454e-01   4.6985693e-01   4.7044357e-01   4.7143345e-01   4.7285087e-01   4.7478971e-01   4.7731218e-01   4.8044846e-01   4.8419671e-01   4.8852301e-01   4.9336140e-01   4.9861391e-01   5.0415050e-01   5.0980908e-01   5.1539553e-01   5.2068368e-01   5.2541534e-01   5.2930024e-01   5.3201608e-01   5.3312222e-01   5.3228227e-01   5.2984019e-01   5.2614864e-01   5.2152268e-01   5.1623984e-01   5.1054005e-01   5.0462566e-01   4.9866148e-01   4.9277472e-01   4.8705504e-01   4.8155450e-01   4.7628762e-01   4.7123133e-01   4.6632500e-01   4.6147040e-01   4.5653133e-01   4.5087687e-01   4.4326342e-01   4.3344612e-01   4.2239414e-01   4.1229074e-01   4.0653319e-01   4.0973127e-01   4.2586467e-01   4.5887363e-01   5.0994968e-01   5.7501934e-01   6.4474412e-01   7.0469064e-01   7.3886214e-01
