   1.2598475e+00   1.2522770e+00   1.2335114e+00   1.2039670e+00   1.1644790e+00   1.1159861e+00   1.0597776e+00   9.9726955e-01   9.2991081e-01   8.5918339e-01   7.8658419e-01   7.1341141e-01   6.4076414e-01   5.6963355e-01   5.0090313e-01   4.3534867e-01   3.7363825e-01   3.1633227e-01   2.6388340e-01   2.1663069e-01   1.7469804e-01   1.3801989e-01   1.0648351e-01   8.0006608e-02   5.8328134e-02   4.1159945e-02   2.8195765e-02   1.9111191e-02   1.3563690e-02   1.1192602e-02   1.1619138e-02   1.4446379e-02   1.9259279e-02   2.5662301e-02   3.3367935e-02   4.2107990e-02   5.1621835e-02   6.1656525e-02   7.1975936e-02   8.2457317e-02   9.2959784e-02   1.0335793e-01   1.1356672e-01   1.2354116e-01   1.3322556e-01   1.4255344e-01   1.5148247e-01   1.5997850e-01   1.6801556e-01   1.7557584e-01   1.8264969e-01   1.8923564e-01   1.9534039e-01   2.0097880e-01   2.0617392e-01   2.1095777e-01   2.1538304e-01   2.1947757e-01   2.2326023e-01   2.2677267e-01   2.3005404e-01   2.3314096e-01   2.3606754e-01   2.3886537e-01   2.4156351e-01   2.4418851e-01   2.4676441e-01   2.4931271e-01   2.5185241e-01   2.5439998e-01   2.5696938e-01   2.5957205e-01   2.6221690e-01   2.6491032e-01   2.6765621e-01   2.7045635e-01   2.7331863e-01   2.7624963e-01   2.7924845e-01   2.8231239e-01   2.8543864e-01   2.8862426e-01   2.9186623e-01   2.9516140e-01   2.9850651e-01   3.0189821e-01   3.0533302e-01   3.0880736e-01   3.1231754e-01   3.1585977e-01   3.1943012e-01   3.2302458e-01   3.2663903e-01   3.3026922e-01   3.3391081e-01   3.3755934e-01   3.4121024e-01   3.4485885e-01   3.4850037e-01   3.5212991e-01   3.5574247e-01   3.5933293e-01   3.6289607e-01   3.6642656e-01   3.6991896e-01   3.7336771e-01   3.7676716e-01   3.8011154e-01   3.8339497e-01   3.8661146e-01   3.8975491e-01   3.9281828e-01   3.9579569e-01   3.9868757e-01   4.0149109e-01   4.0420316e-01   4.0682100e-01   4.0934207e-01   4.1176414e-01   4.1408520e-01   4.1630355e-01   4.1841774e-01   4.2042660e-01   4.2232922e-01   4.2412497e-01   4.2581348e-01   4.2739467e-01   4.2886871e-01   4.3023604e-01   4.3149739e-01   4.3265374e-01   4.3370634e-01   4.3465672e-01   4.3550669e-01   4.3625831e-01   4.3691391e-01   4.3747611e-01   4.3794778e-01   4.3833208e-01   4.3863241e-01   4.3885247e-01   4.3899622e-01   4.3906788e-01   4.3907196e-01   4.3901322e-01   4.3889670e-01   4.3872772e-01   4.3851185e-01   4.3825494e-01   4.3796311e-01   4.3764275e-01   4.3730053e-01   4.3694336e-01   4.3657258e-01   4.3618296e-01   4.3577888e-01   4.3536468e-01   4.3494437e-01   4.3452162e-01   4.3409977e-01   4.3368182e-01   4.3327046e-01   4.3286805e-01   4.3247659e-01   4.3209777e-01   4.3173296e-01   4.3138318e-01   4.3104914e-01   4.3073119e-01   4.3042937e-01   4.3014339e-01   4.2987409e-01   4.2962849e-01   4.2940604e-01   4.2920477e-01   4.2902259e-01   4.2885728e-01   4.2870651e-01   4.2856784e-01   4.2843872e-01   4.2831646e-01   4.2819828e-01   4.2808127e-01   4.2796240e-01   4.2783854e-01   4.2770643e-01   4.2760943e-01   4.2794918e-01   4.2871250e-01   4.2977847e-01   4.3103988e-01   4.3240325e-01   4.3378882e-01   4.3513055e-01   4.3637612e-01   4.3748694e-01   4.3843812e-01   4.3921853e-01   4.3983071e-01   4.4029098e-01   4.4062933e-01   4.4088950e-01   4.4109381e-01   4.4119419e-01   4.4118799e-01   4.4107511e-01   4.4085562e-01   4.4052981e-01   4.4009812e-01   4.3956119e-01   4.3891985e-01   4.3817509e-01   4.3732810e-01   4.3638025e-01   4.3533310e-01   4.3418838e-01   4.3294801e-01   4.3161406e-01   4.3018704e-01   4.2866914e-01   4.2706397e-01   4.2537536e-01   4.2360736e-01   4.2176427e-01   4.1985060e-01   4.1787109e-01   4.1583069e-01   4.1373459e-01   4.1158821e-01   4.0939719e-01   4.0716739e-01   4.0490481e-01   4.0261022e-01   4.0028735e-01   3.9794340e-01   3.9558558e-01   3.9322116e-01   3.9085737e-01   3.8850153e-01   3.8616093e-01   3.8384292e-01   3.8155484e-01   3.7930408e-01   3.7709804e-01   3.7494414e-01   3.7284983e-01   3.7082258e-01   3.6886988e-01   3.6699924e-01   3.6521822e-01   3.6353436e-01   3.6195524e-01   3.6049183e-01   3.5915002e-01   3.5792901e-01   3.5682745e-01   3.5584339e-01   3.5497432e-01   3.5421716e-01   3.5356825e-01   3.5302335e-01   3.5257766e-01   3.5222579e-01   3.5196179e-01   3.5177913e-01   3.5167072e-01   3.5162886e-01   3.5164532e-01   3.5171127e-01   3.5181731e-01   3.5195348e-01   3.5210922e-01   3.5227341e-01   3.5243437e-01   3.5257983e-01   3.5269695e-01   3.5277231e-01   3.5279194e-01   3.5274125e-01   3.5260513e-01   3.5236785e-01   3.5201315e-01   3.5152416e-01   3.5088345e-01   3.5007302e-01   3.4907429e-01   3.4787238e-01   3.4646944e-01   3.4487187e-01   3.4308104e-01   3.4109873e-01   3.3892739e-01   3.3657021e-01   3.3403108e-01   3.3131459e-01   3.2842603e-01   3.2537143e-01   3.2215749e-01   3.1879165e-01   3.1528203e-01   3.1163748e-01   3.0786755e-01   3.0398250e-01   2.9999328e-01   2.9591158e-01   2.9174978e-01   2.8752096e-01   2.8323892e-01   2.7891817e-01   2.7457391e-01   2.7022208e-01   2.6587930e-01   2.6156290e-01   2.5729094e-01   2.5308216e-01   2.4895602e-01   2.4492921e-01   2.4097922e-01   2.3711412e-01   2.3335183e-01   2.2970647e-01   2.2618837e-01   2.2280408e-01   2.1955634e-01   2.1644412e-01   2.1346258e-01   2.1060310e-01   2.0785328e-01   2.0519690e-01   2.0261397e-01   2.0008072e-01   1.9756957e-01   1.9504915e-01   1.9248431e-01   1.8983610e-01   1.8706179e-01   1.8411485e-01   1.8094496e-01   1.7750490e-01   1.7377035e-01   1.6969051e-01   1.6523654e-01   1.6040869e-01   1.5523632e-01   1.4977786e-01   1.4412085e-01   1.3838192e-01   1.3270681e-01   1.2727033e-01   1.2227640e-01   1.1794216e-01   1.1448622e-01   1.1221324e-01   1.1141524e-01   1.1236261e-01   1.1530407e-01   1.2046669e-01   1.2805589e-01   1.3825545e-01   1.5122746e-01   1.6711239e-01   1.8602905e-01   2.0806541e-01   2.3316038e-01   2.6109482e-01   2.9155134e-01   3.2411558e-01   3.5827611e-01   3.9342455e-01   4.2885546e-01   4.6376643e-01   4.9725801e-01   5.2833343e-01   5.5589537e-01   5.7877107e-01   5.9613112e-01   6.0758834e-01   6.1301203e-01   6.1253887e-01   6.0655113e-01   5.9518598e-01   5.7863200e-01   5.5726879e-01   5.3157735e-01   5.0213527e-01   4.6949594e-01   4.3439573e-01   3.9760362e-01   3.5982765e-01   3.2171495e-01   2.8385173e-01   2.4676328e-01   2.1091396e-01   1.7670722e-01   1.4448559e-01   1.1453068e-01   8.7063162e-02   6.2242812e-02   4.0174162e-02   2.0934145e-02   4.5040464e-03  -9.1696979e-03  -2.0161859e-02  -2.8568415e-02  -3.4506551e-02  -3.8114658e-02  -3.9552335e-02  -3.9000388e-02  -3.6660828e-02  -3.2756875e-02  -2.7532954e-02  -2.1254698e-02  -1.4185658e-02  -6.5184944e-03   1.5286712e-03   9.7561229e-03   1.7987904e-02   2.6071817e-02   3.3879423e-02   4.1306043e-02   4.8270756e-02   5.4716401e-02   6.0609575e-02   6.5940634e-02   7.0723695e-02   7.4996631e-02   7.8793435e-02   8.2137719e-02   8.5085578e-02   8.7689974e-02   9.0000355e-02   9.2062654e-02   9.3919291e-02   9.5609171e-02   9.7167684e-02   9.8626707e-02   1.0001460e-01   1.0135622e-01   1.0267289e-01   1.0398244e-01   1.0529917e-01   1.0663387e-01   1.0799382e-01   1.0938278e-01   1.1080273e-01   1.1226435e-01   1.1377136e-01   1.1532547e-01   1.1692826e-01   1.1858114e-01   1.2028539e-01   1.2204213e-01   1.2385234e-01   1.2571685e-01   1.2763633e-01   1.2961133e-01   1.3164221e-01   1.3372922e-01   1.3587243e-01   1.3807179e-01   1.4032708e-01   1.4263794e-01   1.4500386e-01   1.4742418e-01   1.4989811e-01   1.5242467e-01   1.5500277e-01   1.5763116e-01   1.6030844e-01   1.6303305e-01   1.6580330e-01   1.6861810e-01   1.7147689e-01   1.7437825e-01   1.7732054e-01   1.8030070e-01   1.8331563e-01   1.8636220e-01   1.8943723e-01   1.9253752e-01   1.9565984e-01   1.9880091e-01   2.0195744e-01   2.0512607e-01   2.0830345e-01   2.1148615e-01   2.1467075e-01   2.1785377e-01   2.2103170e-01   2.2420099e-01   2.2735807e-01   2.3049934e-01   2.3362114e-01   2.3671980e-01   2.3979161e-01   2.4283281e-01   2.4583964e-01   2.4880828e-01   2.5173487e-01   2.5461554e-01   2.5744636e-01   2.6022341e-01   2.6294267e-01   2.6560015e-01   2.6819179e-01   2.7071498e-01   2.7317084e-01   2.7555590e-01   2.7786655e-01   2.8009945e-01   2.8225152e-01   2.8431997e-01   2.8630229e-01   2.8819625e-01   2.8999987e-01   2.9171149e-01   2.9332968e-01   2.9485333e-01   2.9628157e-01   2.9761383e-01   2.9884982e-01   2.9998950e-01   3.0103313e-01   3.0197741e-01   3.0281458e-01   3.0354863e-01   3.0418415e-01   3.0472570e-01   3.0517784e-01   3.0554510e-01   3.0583198e-01   3.0604299e-01   3.0618259e-01   3.0625524e-01   3.0626536e-01   3.0621737e-01   3.0611567e-01   3.0596462e-01   3.0576857e-01   3.0553187e-01   3.0525883e-01   3.0495373e-01   3.0462086e-01   3.0426446e-01   3.0388860e-01   3.0349239e-01   3.0307803e-01   3.0265007e-01   3.0221270e-01   3.0176985e-01   3.0132509e-01   3.0088172e-01   3.0044271e-01   3.0001072e-01   2.9958812e-01   2.9917694e-01   2.9877892e-01   2.9839549e-01   2.9802776e-01   2.9767654e-01   2.9734233e-01   2.9702530e-01   2.9672534e-01   2.9644201e-01   2.9617457e-01   2.9592196e-01   2.9568283e-01   2.9545549e-01   2.9523797e-01   2.9502797e-01   2.9482289e-01   2.9461981e-01   2.9441552e-01   2.9420809e-01   2.9400253e-01   2.9379220e-01   2.9356871e-01   2.9332413e-01   2.9305096e-01   2.9274214e-01   2.9239108e-01   2.9199161e-01   2.9153721e-01   2.9102023e-01   2.9043483e-01   2.8977558e-01   2.8903741e-01   2.8821562e-01   2.8730587e-01   2.8630417e-01   2.8520690e-01   2.8401080e-01   2.8271295e-01   2.8131082e-01   2.7980223e-01   2.7818541e-01   2.7645896e-01   2.7462188e-01   2.7267355e-01   2.7061371e-01   2.6844256e-01   2.6616064e-01   2.6376895e-01   2.6133436e-01   2.6004887e-01   2.5915304e-01   2.5792032e-01   2.5652861e-01   2.5499959e-01   2.5332500e-01   2.5151016e-01   2.4956097e-01   2.4748377e-01   2.4528539e-01   2.4297318e-01   2.4055500e-01   2.3803923e-01   2.3543310e-01   2.3273670e-01   2.2995885e-01   2.2710968e-01   2.2419902e-01   2.2123640e-01   2.1823102e-01   2.1519178e-01   2.1212725e-01   2.0904571e-01   2.0595510e-01   2.0286331e-01   1.9977866e-01   1.9670801e-01   1.9365775e-01   1.9063408e-01   1.8764295e-01   1.8469007e-01   1.8178092e-01   1.7892076e-01   1.7611460e-01   1.7336724e-01   1.7068321e-01   1.6806684e-01   1.6552221e-01   1.6305319e-01   1.6066337e-01   1.5835616e-01   1.5613471e-01   1.5400194e-01   1.5196052e-01   1.5001293e-01   1.4816138e-01   1.4640785e-01   1.4475411e-01   1.4320168e-01   1.4175184e-01   1.4040565e-01   1.3916394e-01   1.3802729e-01   1.3699607e-01   1.3607039e-01   1.3525002e-01   1.3453239e-01   1.3391963e-01   1.3341516e-01   1.3301593e-01   1.3272122e-01   1.3253512e-01   1.3246054e-01   1.3249915e-01   1.3265140e-01   1.3291650e-01   1.3329248e-01   1.3377612e-01   1.3436298e-01   1.3504740e-01   1.3582251e-01   1.3668021e-01   1.3761117e-01   1.3860487e-01   1.3964953e-01   1.4073216e-01   1.4183858e-01   1.4295335e-01   1.4409573e-01   1.4525051e-01   1.4635944e-01   1.4737151e-01   1.4824294e-01   1.4893721e-01   1.4942502e-01   1.4968430e-01   1.4970024e-01   1.4946525e-01   1.4897898e-01   1.4824832e-01   1.4728741e-01   1.4611760e-01   1.4476750e-01   1.4327483e-01   1.4168923e-01   1.4005537e-01   1.3842430e-01   1.3685510e-01   1.3541486e-01   1.3417871e-01   1.3315260e-01   1.3234664e-01   1.3197774e-01   1.3225170e-01   1.3335770e-01   1.3546832e-01   1.3873953e-01   1.4331070e-01   1.4930456e-01   1.5682726e-01   1.6596834e-01   1.7680072e-01   1.8938070e-01   2.0374799e-01   2.1992569e-01   2.3792028e-01   2.5772163e-01   2.7930301e-01   3.0262108e-01   3.2761588e-01   3.5421085e-01   3.8231282e-01   4.1181201e-01   4.4258202e-01   4.7447274e-01   5.0732026e-01   5.4077572e-01   5.7428345e-01   6.0730819e-01   6.3933854e-01   6.6988697e-01   6.9848985e-01   7.2470741e-01   7.4812376e-01   7.6834687e-01   7.8500863e-01   7.9776476e-01   8.0629489e-01   8.1030250e-01   8.0962742e-01   8.0559077e-01   7.9790188e-01   7.8585609e-01   7.6906040e-01   7.4743350e-01   7.2120575e-01   6.9091916e-01   6.5742744e-01   6.2189595e-01   5.8580174e-01   5.5054608e-01   5.1431914e-01   4.7680242e-01   4.3829961e-01   3.9910216e-01   3.5948925e-01   3.1972780e-01   2.8007247e-01   2.4076568e-01   2.0203756e-01   1.6410593e-01   1.2716783e-01   9.1412319e-02   5.6962192e-02   2.3919862e-02  -7.6258372e-03  -3.7599657e-02  -6.5939934e-02  -9.2598586e-02  -1.1754112e-01  -1.4074662e-01  -1.6220776e-01  -1.8193080e-01  -1.9993557e-01  -2.1625551e-01  -2.3093762e-01  -2.4404249e-01  -2.5564431e-01  -2.6583083e-01  -2.7468934e-01  -2.8230219e-01  -2.8878828e-01  -2.9426224e-01  -2.9878317e-01  -3.0235338e-01  -3.0506814e-01  -3.0700440e-01  -3.0821696e-01  -3.0873847e-01  -3.0857944e-01  -3.0772823e-01  -3.0615103e-01  -3.0379192e-01  -3.0057349e-01  -2.9644430e-01  -2.9129113e-01  -2.8496519e-01  -2.7732719e-01  -2.6824733e-01  -2.5760531e-01  -2.4529032e-01  -2.3120106e-01  -2.1524571e-01  -1.9734196e-01  -1.7741698e-01  -1.5540746e-01  -1.3125956e-01  -1.0492896e-01  -7.6380972e-02  -4.5662956e-02  -1.2966577e-02   2.1466921e-02   5.7360469e-02   9.4384564e-02   1.3215689e-01   1.7024234e-01   2.0815297e-01   2.4534804e-01   2.8123401e-01   3.1516451e-01   3.4644039e-01   3.7430966e-01   3.9796243e-01   4.1666349e-01   4.3031002e-01   4.3895610e-01   4.4268549e-01   4.4161166e-01   4.3587775e-01   4.2565663e-01   4.1115086e-01   3.9259268e-01   3.7024404e-01   3.4439658e-01   3.1537165e-01   2.8352028e-01   2.4922321e-01   2.1309477e-01   1.7604324e-01   1.3858966e-01   1.0120207e-01   6.4307597e-02   2.8292485e-02  -6.4979184e-03  -3.9759158e-02  -7.1225254e-02  -1.0066075e-01  -1.2787751e-01  -1.5272864e-01  -1.7510732e-01  -1.9494680e-01  -2.1222039e-01  -2.2694146e-01  -2.3916348e-01  -2.4897997e-01  -2.5652450e-01  -2.6184509e-01  -2.6494453e-01  -2.6602806e-01  -2.6529700e-01  -2.6294590e-01  -2.5916259e-01  -2.5412815e-01  -2.4801690e-01  -2.4099645e-01  -2.3322765e-01  -2.2486459e-01  -2.1605465e-01  -2.0693845e-01  -1.9764987e-01  -1.8831604e-01  -1.7905736e-01  -1.6998748e-01  -1.6121331e-01  -1.5283502e-01  -1.4494356e-01  -1.3756283e-01  -1.3066462e-01  -1.2422091e-01  -1.1820348e-01  -1.1258385e-01  -1.0733332e-01  -1.0242294e-01  -9.7823546e-02  -9.3505718e-02  -8.9439808e-02  -8.5595933e-02  -8.1943973e-02  -7.8453573e-02  -7.5094142e-02  -7.1834853e-02  -6.8644645e-02  -6.5492220e-02  -6.2346364e-02  -5.9179449e-02  -5.5986792e-02  -5.2762647e-02  -4.9499926e-02  -4.6192057e-02  -4.2832984e-02  -3.9417170e-02  -3.5939591e-02  -3.2395741e-02  -2.8781630e-02  -2.5093786e-02  -2.1329250e-02  -1.7485583e-02  -1.3560860e-02  -9.5536737e-03  -5.4631323e-03  -1.2888608e-03   2.9689995e-03   7.3097907e-03   1.1732339e-02   1.6234953e-02   2.0816532e-02   2.5478782e-02   3.0221505e-02   3.5044209e-02   3.9946264e-02   4.4926907e-02   4.9985238e-02   5.5120223e-02   6.0330692e-02   6.5615338e-02   7.0972721e-02   7.6401263e-02   8.1899253e-02   8.7464842e-02   9.3096046e-02   9.8790749e-02   1.0454669e-01   1.1036149e-01   1.1623262e-01   1.2215741e-01   1.2813308e-01   1.3415668e-01   1.4022515e-01   1.4633530e-01   1.5248377e-01   1.5866710e-01   1.6488168e-01   1.7112376e-01   1.7738946e-01   1.8367478e-01   1.8997748e-01   1.9629406e-01   2.0261946e-01   2.0894857e-01   2.1527629e-01   2.2159750e-01   2.2790704e-01   2.3419976e-01   2.4047049e-01   2.4671548e-01   2.5293232e-01   2.5911543e-01   2.6525917e-01   2.7135799e-01   2.7740636e-01   2.8339885e-01   2.8933004e-01   2.9519462e-01   3.0098730e-01   3.0670286e-01   3.1233615e-01   3.1788207e-01   3.2333558e-01   3.2869170e-01   3.3394550e-01   3.3909212e-01   3.4412675e-01   3.4904465e-01   3.5384113e-01   3.5851156e-01   3.6305138e-01   3.6745606e-01   3.7172116e-01   3.7584228e-01   3.7981510e-01   3.8363533e-01   3.8729875e-01   3.9080131e-01   3.9414038e-01   3.9731331e-01   4.0031736e-01   4.0314995e-01   4.0580869e-01   4.0829132e-01   4.1059582e-01   4.1272027e-01   4.1466298e-01   4.1642239e-01   4.1799715e-01   4.1938604e-01   4.2058806e-01   4.2160233e-01   4.2242819e-01   4.2306513e-01   4.2351280e-01   4.2377104e-01   4.2383987e-01   4.2371945e-01   4.2341014e-01   4.2291247e-01   4.2222713e-01   4.2135499e-01   4.2029710e-01   4.1905465e-01   4.1762904e-01   4.1602183e-01   4.1423474e-01   4.1226967e-01   4.1012870e-01   4.0781407e-01   4.0532650e-01   4.0266673e-01   3.9983879e-01   3.9684692e-01   3.9369546e-01   3.9038892e-01   3.8693195e-01   3.8332933e-01   3.7958600e-01   3.7570704e-01   3.7169767e-01   3.6756324e-01   3.6330927e-01   3.5894140e-01   3.5446544e-01   3.4988731e-01   3.4521310e-01   3.4044895e-01   3.3559510e-01   3.3065329e-01   3.2562876e-01   3.2052669e-01   3.1535213e-01   3.1011008e-01   3.0480541e-01   2.9944295e-01   2.9402739e-01   2.8856337e-01   2.8305542e-01   2.7750799e-01   2.7192542e-01   2.6631200e-01   2.6067189e-01   2.5500919e-01   2.4932789e-01   2.4363191e-01   2.3792506e-01   2.3221108e-01   2.2649361e-01   2.2077619e-01   2.1506230e-01   2.0935531e-01   2.0365850e-01   1.9797507e-01   1.9230813e-01   1.8666068e-01   1.8103566e-01   1.7543591e-01   1.6986417e-01   1.6432310e-01   1.5881528e-01   1.5334318e-01   1.4790920e-01   1.4251564e-01   1.3716471e-01   1.3185853e-01   1.2659914e-01   1.2138848e-01   1.1622846e-01   1.1112126e-01   1.0606879e-01   1.0107276e-01   9.6134838e-02   9.1256640e-02   8.6439713e-02   8.1685546e-02   7.7256904e-02   7.3743567e-02   7.0789952e-02   6.8076715e-02   6.5389039e-02   6.2616633e-02   5.9753733e-02   5.6899100e-02   5.4128504e-02   5.1386372e-02   4.8671557e-02   4.5984418e-02   4.3325626e-02   4.0695831e-02   3.8095682e-02   3.5526154e-02   3.2987874e-02   3.0481273e-02   2.8006790e-02   2.5564867e-02   2.3155950e-02   2.0780490e-02   1.8438944e-02   1.6131771e-02   1.3859439e-02   1.1622416e-02   9.4211773e-03   7.2562022e-03   5.1279749e-03   3.0369841e-03   9.8372317e-04  -1.0313098e-03  -3.0076121e-03  -4.9446762e-03  -6.8419900e-03  -8.6990368e-03  -1.0515295e-02  -1.2290239e-02  -1.4023337e-02  -1.5714054e-02  -1.7361850e-02  -1.8966181e-02  -2.0526496e-02  -2.2042241e-02  -2.3512858e-02  -2.4937782e-02  -2.6316447e-02  -2.7648279e-02  -2.8933445e-02  -3.0174433e-02  -3.1369794e-02  -3.2517581e-02  -3.3615883e-02  -3.4662825e-02  -3.5656567e-02  -3.6595304e-02  -3.7477267e-02  -3.8300721e-02  -3.9063967e-02  -3.9765343e-02  -4.0403221e-02  -4.0976006e-02  -4.1482144e-02  -4.1920110e-02  -4.2288419e-02  -4.2585620e-02  -4.2810297e-02  -4.2961068e-02  -4.3036590e-02  -4.3035551e-02  -4.2956679e-02  -4.2798733e-02  -4.2560510e-02  -4.2240841e-02  -4.1838593e-02  -4.1352670e-02  -4.0782008e-02  -4.0125580e-02  -3.9382395e-02  -3.8551497e-02  -3.7631965e-02  -3.6622912e-02  -3.5523490e-02  -3.4332883e-02  -3.3050279e-02  -3.1673175e-02  -3.0199522e-02  -2.8628167e-02  -2.6957963e-02  -2.5187770e-02  -2.3316453e-02  -2.1342764e-02  -1.9266550e-02  -1.7091039e-02  -1.4819967e-02  -1.2457269e-02  -1.0007081e-02  -7.4737331e-03  -4.8617557e-03  -2.1758768e-03   5.7897721e-04   3.3976821e-03   6.2749153e-03   9.2051562e-03   1.2182686e-02   1.5201588e-02   1.8255747e-02   2.1338849e-02   2.4444385e-02   2.7565643e-02   3.0695717e-02   3.3827500e-02   3.6953690e-02   4.0066783e-02   4.3159080e-02   4.6222683e-02   4.9249495e-02   5.2231222e-02   5.5159370e-02   5.8025250e-02   6.0819972e-02   6.3534450e-02   6.6159397e-02   6.8685331e-02   7.1102570e-02   7.3401234e-02   7.5571247e-02   7.7602331e-02   7.9484014e-02   8.1207807e-02   8.2772165e-02   8.4173679e-02   8.5409166e-02   8.6475911e-02   8.7371666e-02   8.8094645e-02   8.8643531e-02   8.9017469e-02   8.9216074e-02   8.9239422e-02   8.9088058e-02   8.8762991e-02   8.8265695e-02   8.7598111e-02   8.6762646e-02   8.5762170e-02   8.4600020e-02   8.3280000e-02   8.1806377e-02   8.0183885e-02   7.8417724e-02   7.6513558e-02   7.4477518e-02   7.2316083e-02   7.0033869e-02   6.7637409e-02   6.5134673e-02   6.2534087e-02   5.9844537e-02   5.7075367e-02   5.4236379e-02   5.1337833e-02   4.8390448e-02   4.5405398e-02   4.2394321e-02   3.9369307e-02   3.6342909e-02   3.3311333e-02   3.0267823e-02   2.7225496e-02   2.4196462e-02   2.1191777e-02   1.8221443e-02   1.5294410e-02   1.2418572e-02   9.6007710e-03   6.8467937e-03   4.1613738e-03   1.5481910e-03  -9.9012894e-04  -3.4520138e-03  -5.8369455e-03  -8.1454596e-03  -1.0379145e-02  -1.2540646e-02  -1.4633659e-02  -1.6662935e-02  -1.8634279e-02  -2.0554548e-02  -2.2431656e-02  -2.4274569e-02  -2.6093306e-02  -2.7898942e-02  -2.9703603e-02  -3.1520472e-02  -3.3363784e-02  -3.5248827e-02  -3.7191944e-02  -3.9208129e-02  -4.1304677e-02  -4.3528075e-02  -4.5925543e-02  -4.8536045e-02  -5.1390290e-02  -5.4510731e-02  -5.7911568e-02  -6.1598746e-02  -6.5569953e-02  -6.9814623e-02  -7.4313937e-02  -7.9040817e-02  -8.3959935e-02  -8.9027703e-02  -9.4192282e-02  -9.9393575e-02  -1.0456341e-01  -1.0963805e-01  -1.1449352e-01  -1.1897819e-01  -1.2294352e-01  -1.2624437e-01  -1.2873876e-01  -1.3028789e-01  -1.3075613e-01  -1.3001101e-01  -1.2792325e-01  -1.2436671e-01  -1.1921846e-01  -1.1235870e-01  -1.0367083e-01  -9.3041397e-02  -8.0360138e-02  -6.5519950e-02  -4.8464473e-02  -2.9207152e-02  -7.7048918e-03   1.6040457e-02   4.1978610e-02   7.0010850e-02   9.9990025e-02   1.3172055e-01   1.6495840e-01   1.9941113e-01   2.3473785e-01   2.7054924e-01   3.0640754e-01   3.4182656e-01   3.7627167e-01   4.0916051e-01   4.3999057e-01   4.6822049e-01   4.9328387e-01   5.1469672e-01   5.3205743e-01   5.4504680e-01   5.5342801e-01   5.5704662e-01   5.5583062e-01   5.4979037e-01   5.3901861e-01   5.2369049e-01   5.0406357e-01   4.8047776e-01   4.5335541e-01   4.2320122e-01   3.9060231e-01   3.5611161e-01   3.1999650e-01   2.8276206e-01   2.4490120e-01   2.0686922e-01   1.6908384e-01   1.3192518e-01   9.5735752e-02   6.0820492e-02   2.7446727e-02  -4.1558121e-03  -3.3794986e-02  -6.1316256e-02  -8.6602675e-02  -1.0957490e-01  -1.3019116e-01  -1.4844733e-01  -1.6437637e-01  -1.7795051e-01  -1.8919110e-01  -1.9820196e-01  -2.0509200e-01  -2.0997524e-01  -2.1297081e-01  -2.1420292e-01  -2.1380089e-01  -2.1189914e-01  -2.0863719e-01  -2.0415966e-01  -1.9861627e-01  -1.9216184e-01  -1.8495629e-01  -1.7716464e-01  -1.6895701e-01  -1.6050862e-01  -1.5199980e-01  -1.4358552e-01  -1.3533648e-01  -1.2731716e-01  -1.1958413e-01  -1.1218570e-01  -1.0516272e-01  -9.8554020e-02  -9.2383988e-02  -8.6666876e-02  -8.1408706e-02  -7.6607272e-02  -7.2252139e-02  -6.8324647e-02  -6.4797904e-02  -6.1636793e-02  -5.8797967e-02  -5.6229853e-02  -5.3872650e-02  -5.1673622e-02  -4.9629432e-02  -4.7717027e-02  -4.5912312e-02  -4.4192822e-02  -4.2537723e-02  -4.0927814e-02  -3.9345520e-02  -3.7774901e-02  -3.6201644e-02  -3.4613070e-02  -3.2998127e-02  -3.1347397e-02  -2.9653090e-02  -2.7909048e-02  -2.6110744e-02  -2.4255279e-02  -2.2341388e-02  -2.0369435e-02  -1.8339539e-02  -1.6244453e-02  -1.4081663e-02  -1.1849585e-02  -9.5467240e-03  -7.1716774e-03  -4.7231314e-03  -2.1998631e-03   3.9926003e-04   3.0752803e-03   5.8291496e-03   8.6617294e-03   1.1573791e-02   1.4566015e-02   1.7638991e-02   2.0793220e-02   2.4029112e-02   2.7346985e-02   3.0747070e-02   3.4229503e-02   3.7794334e-02   4.1441520e-02   4.5170928e-02   4.8982337e-02   5.2875432e-02   5.6850347e-02   6.0907036e-02   6.5044661e-02   6.9262315e-02   7.3559021e-02   7.7933733e-02   8.2385336e-02   8.6912645e-02   9.1514408e-02   9.6189301e-02   1.0093593e-01   1.0575284e-01   1.1063850e-01   1.1559131e-01   1.2060959e-01   1.2569162e-01   1.3083559e-01   1.3603961e-01   1.4130175e-01   1.4661999e-01   1.5199225e-01   1.5741638e-01   1.6289014e-01   1.6841126e-01   1.7397737e-01   1.7958605e-01   1.8523479e-01   1.9092102e-01   1.9664212e-01   2.0239537e-01   2.0817800e-01   2.1398717e-01   2.1981996e-01   2.2567153e-01   2.3153328e-01   2.3739670e-01   2.4325333e-01   2.4909469e-01   2.5491230e-01   2.6069770e-01   2.6644447e-01   2.7214807e-01   2.7780010e-01   2.8339225e-01   2.8891641e-01   2.9436466e-01   2.9972928e-01   3.0500273e-01   3.1017768e-01   3.1524698e-01   3.2020369e-01   3.2504106e-01   3.2975252e-01   3.3433171e-01   3.3877246e-01   3.4306879e-01   3.4721491e-01   3.5120525e-01   3.5503440e-01   3.5869716e-01   3.6218854e-01   3.6550371e-01   3.6863805e-01   3.7158716e-01   3.7434679e-01   3.7691291e-01   3.7928169e-01   3.8144947e-01   3.8341280e-01   3.8516842e-01   3.8671327e-01   3.8804448e-01   3.8915938e-01   3.9005548e-01   3.9073049e-01   3.9118233e-01   3.9140909e-01   3.9140907e-01   3.9118076e-01   3.9072284e-01   3.9003419e-01   3.8911388e-01   3.8796119e-01   3.8657556e-01   3.8495666e-01   3.8310264e-01   3.8100934e-01   3.7868206e-01   3.7612744e-01   3.7335211e-01   3.7036273e-01   3.6716595e-01   3.6376841e-01   3.6017678e-01   3.5639770e-01   3.5243785e-01   3.4830388e-01   3.4400245e-01   3.3954025e-01   3.3492393e-01   3.3016018e-01   3.2525567e-01   3.2021708e-01   3.1505110e-01   3.0976441e-01   3.0436369e-01   2.9885565e-01   2.9324697e-01   2.8754435e-01   2.8175450e-01   2.7588411e-01   2.6993989e-01   2.6392855e-01   2.5785679e-01   2.5173134e-01   2.4555892e-01   2.3934623e-01   2.3310000e-01   2.2682696e-01   2.2053384e-01   2.1422737e-01   2.0791427e-01   2.0160130e-01   1.9529518e-01   1.8900265e-01   1.8273048e-01   1.7648539e-01   1.7027415e-01   1.6410350e-01   1.5798021e-01   1.5191102e-01   1.4590268e-01   1.3995971e-01   1.3408694e-01   1.2829015e-01   1.2257507e-01   1.1694735e-01   1.1141257e-01   1.0597387e-01   1.0062803e-01   9.5377140e-02   9.0223605e-02   8.5169623e-02   8.0217200e-02   7.5368153e-02   7.0624104e-02   6.5986484e-02   6.1456530e-02   5.7035288e-02   5.2723610e-02   4.8522156e-02   4.4431394e-02   4.0451598e-02   3.6582851e-02   3.2825043e-02   2.9177870e-02   2.5640838e-02   2.2213259e-02   1.8894251e-02   1.5682785e-02   1.2577970e-02   9.7127927e-03   8.4670802e-03   7.3056937e-03   6.1950602e-03   5.1357744e-03   4.1263727e-03   3.1652805e-03   2.2508097e-03   1.3811623e-03   5.5443064e-04  -2.3140259e-04  -9.7846454e-04  -1.6889921e-03  -2.3653318e-03  -3.0099400e-03  -3.6253828e-03  -4.2143202e-03  -4.7791137e-03  -5.3225985e-03  -5.8479361e-03  -6.3583741e-03  -6.8572459e-03  -7.3479708e-03  -7.8340542e-03  -8.3106697e-03  -8.7779546e-03  -9.2532834e-03  -9.7534021e-03  -1.0294305e-02  -1.0891234e-02  -1.1558679e-02  -1.2310380e-02  -1.3159324e-02  -1.4117745e-02  -1.5197127e-02  -1.6408201e-02  -1.7760948e-02  -1.9264595e-02  -2.0927618e-02  -2.2757743e-02  -2.4761940e-02  -2.6946433e-02  -2.9316688e-02  -3.1877425e-02  -3.4632607e-02  -3.7585450e-02  -4.0738414e-02  -4.4093211e-02  -4.7650797e-02  -5.1411381e-02  -5.5374416e-02  -5.9539392e-02  -6.3909361e-02  -6.8440306e-02  -7.3074053e-02  -7.7750366e-02  -8.2408253e-02  -8.6986021e-02  -9.1421268e-02  -9.5650891e-02  -9.9611080e-02  -1.0323732e-01  -1.0646439e-01  -1.0922636e-01  -1.1145662e-01  -1.1308781e-01  -1.1405191e-01  -1.1428017e-01  -1.1370313e-01  -1.1225065e-01  -1.0985187e-01  -1.0643521e-01  -1.0192842e-01  -9.6258520e-02  -8.9351826e-02  -8.1133959e-02  -7.1529827e-02  -6.0463639e-02  -4.7858895e-02  -3.3665946e-02  -1.7933575e-02  -6.1058633e-04   1.8351708e-02   3.8983624e-02   6.1297101e-02   8.5285709e-02   1.1092464e-01   1.3817072e-01   1.6696239e-01   1.9721949e-01   2.2884010e-01   2.6170555e-01   2.9567945e-01   3.3060671e-01   3.6631355e-01   4.0260746e-01   4.3927721e-01   4.7609289e-01   5.1280586e-01   5.4914877e-01   5.8483556e-01   6.1956148e-01   6.5305389e-01   6.8504690e-01   7.1521771e-01   7.4327248e-01   7.6894701e-01   7.9200670e-01   8.1224657e-01   8.2949126e-01   8.4359503e-01   8.5444174e-01   8.6194490e-01   8.6604760e-01   8.6672257e-01   8.6397217e-01   8.5782834e-01   8.4835266e-01   8.3563634e-01   8.1980018e-01   8.0099462e-01   7.7939970e-01   7.5522845e-01   7.2872835e-01   7.0016789e-01   6.6984550e-01   6.3809002e-01   6.0526073e-01   5.7174384e-01   5.3767494e-01   5.0315885e-01   4.6841044e-01   4.3363246e-01   3.9901555e-01   3.6473821e-01   3.3096683e-01   2.9785567e-01   2.6554688e-01   2.3417049e-01   2.0384439e-01   1.7467436e-01   1.4675407e-01   1.2016506e-01   9.4976732e-02   7.1246398e-02   4.9019227e-02   2.8328275e-02   9.1944737e-03  -8.3733648e-03  -2.4378550e-02  -3.8836512e-02  -5.1774803e-02  -6.3233096e-02  -7.3263185e-02  -8.1928985e-02  -8.9307896e-02  -9.5487149e-02  -1.0040046e-01  -1.0409563e-01  -1.0667163e-01  -1.0822430e-01  -1.0884637e-01  -1.0862741e-01  -1.0765387e-01  -1.0600905e-01  -1.0377312e-01  -1.0102314e-01  -9.7833002e-02  -9.4273480e-02  -9.0412211e-02  -8.6313698e-02  -8.2039309e-02  -7.7647277e-02  -7.3192701e-02  -6.8727546e-02  -6.4300641e-02  -5.9957682e-02  -5.5741230e-02  -5.1690711e-02  -4.7842418e-02  -4.4229508e-02  -4.0882004e-02  -3.7826795e-02  -3.5087634e-02  -3.2685030e-02  -3.0623560e-02  -2.8882077e-02  -2.7437287e-02  -2.6266595e-02  -2.5348105e-02  -2.4660621e-02  -2.4183647e-02  -2.3897386e-02  -2.3782739e-02  -2.3821309e-02  -2.3999662e-02  -2.4311439e-02  -2.4746107e-02  -2.5294952e-02  -2.5951235e-02  -2.6710202e-02  -2.7569076e-02  -2.8527061e-02  -2.9585339e-02  -3.0747075e-02  -3.2017412e-02  -3.3403472e-02  -3.4914360e-02  -3.6561157e-02  -3.8356928e-02  -4.0316714e-02  -4.2457540e-02  -4.4798406e-02  -4.7360296e-02  -5.0149849e-02  -5.3172689e-02  -5.6450913e-02  -5.9996477e-02  -6.3811354e-02  -6.7887530e-02  -7.2207011e-02  -7.6741817e-02  -8.1453986e-02  -8.6295571e-02  -9.1208642e-02  -9.6125285e-02  -1.0096760e-01  -1.0564772e-01  -1.1006776e-01  -1.1411988e-01  -1.1768626e-01  -1.2063906e-01  -1.2284051e-01  -1.2420490e-01  -1.2462094e-01  -1.2391480e-01  -1.2192690e-01  -1.1851187e-01  -1.1353858e-01  -1.0689011e-01  -9.8463792e-02  -8.8171165e-02  -7.5938002e-02  -6.1704302e-02  -4.5424291e-02  -2.7066424e-02  -6.6133809e-03   1.5937931e-02   4.0576377e-02   6.7276595e-02   9.5998996e-02   1.2673360e-01   1.5942876e-01   1.9370539e-01   2.2916144e-01   2.6539433e-01   3.0200091e-01   3.3857745e-01   3.7471969e-01   4.1002278e-01   4.4408132e-01   4.7648935e-01   5.0684035e-01   5.3472723e-01   5.5974234e-01   5.8147748e-01   5.9952387e-01   6.1347218e-01   6.2291252e-01   6.2744293e-01   6.2693989e-01   6.2162527e-01   6.1176126e-01   5.9763112e-01   5.7953914e-01   5.5781067e-01   5.3279213e-01   5.0485095e-01   4.7437565e-01   4.4177577e-01   4.0748192e-01   3.7194575e-01   3.3563997e-01   2.9905833e-01   2.6271563e-01   2.2714773e-01   1.9290182e-01   1.6019855e-01   1.2917321e-01   1.0002027e-01   7.2905994e-02   4.7968411e-02   2.5317352e-02   5.0344298e-03  -1.2826958e-02  -2.8241628e-02  -4.1212611e-02  -5.1771152e-02  -5.9976710e-02  -6.5916958e-02  -6.9707476e-02  -7.1404705e-02  -7.1118164e-02  -6.9032112e-02  -6.5326190e-02  -6.0175419e-02  -5.3750201e-02  -4.6216318e-02  -3.7734934e-02  -2.8462596e-02  -1.8551227e-02  -8.1481361e-03   2.6039902e-03   1.3567083e-02   2.4607693e-02   3.5596988e-02   4.6410759e-02   5.6929411e-02   6.7052183e-02   7.6750545e-02   8.6019016e-02   9.4857226e-02   1.0326621e-01   1.1125018e-01   1.1881694e-01   1.2597793e-01   1.3274817e-01   1.3914629e-01   1.4519453e-01   1.5091874e-01   1.5634837e-01   1.6151646e-01   1.6645970e-01   1.7121833e-01   1.7583623e-01   1.8035763e-01   1.8479189e-01   1.8914941e-01   1.9344432e-01   1.9768957e-01   2.0189687e-01   2.0607676e-01   2.1023853e-01   2.1439030e-01   2.1853895e-01   2.2269018e-01   2.2684845e-01   2.3101704e-01   2.3519801e-01   2.3939220e-01   2.4359926e-01   2.4781762e-01   2.5204451e-01   2.5627953e-01   2.6052490e-01   2.6477985e-01   2.6904350e-01   2.7331490e-01   2.7759303e-01   2.8187682e-01   2.8616508e-01   2.9045659e-01   2.9475004e-01   2.9904404e-01   3.0333713e-01   3.0762780e-01   3.1191443e-01   3.1619535e-01   3.2046883e-01   3.2473302e-01   3.2898605e-01   3.3322594e-01   3.3745066e-01   3.4165809e-01   3.4584645e-01   3.5001489e-01   3.5416081e-01   3.5828135e-01   3.6237360e-01   3.6643464e-01   3.7046146e-01   3.7445105e-01   3.7840032e-01   3.8230617e-01   3.8616542e-01   3.8997487e-01   3.9373158e-01   3.9743324e-01   4.0107751e-01   4.0466202e-01   4.0818439e-01   4.1164222e-01   4.1503312e-01   4.1835464e-01   4.2160435e-01   4.2477980e-01   4.2787850e-01   4.3089798e-01   4.3383574e-01   4.3668924e-01   4.3945597e-01   4.4213337e-01   4.4471888e-01   4.4720991e-01   4.4960389e-01   4.5189818e-01   4.5409018e-01   4.5617724e-01   4.5815670e-01   4.6002590e-01   4.6178214e-01   4.6342273e-01   4.6494495e-01   4.6634606e-01   4.6762332e-01   4.6877397e-01   4.6979522e-01   4.7068429e-01   4.7143836e-01   4.7205461e-01   4.7253400e-01   4.7287721e-01   4.7308185e-01   4.7314574e-01   4.7306684e-01   4.7284332e-01   4.7247353e-01   4.7195600e-01   4.7128945e-01   4.7047277e-01   4.6950505e-01   4.6838555e-01   4.6711372e-01   4.6568919e-01   4.6411178e-01   4.6238149e-01   4.6049851e-01   4.5846319e-01   4.5627610e-01   4.5393796e-01   4.5144969e-01   4.4881239e-01   4.4602735e-01   4.4309604e-01   4.4002010e-01   4.3680138e-01   4.3344188e-01   4.2994382e-01   4.2630958e-01   4.2254173e-01   4.1864302e-01   4.1461639e-01   4.1046495e-01   4.0619202e-01   4.0180108e-01   3.9729579e-01   3.9268002e-01   3.8795780e-01   3.8313336e-01   3.7820997e-01   3.7318788e-01   3.6807080e-01   3.6286289e-01   3.5756843e-01   3.5219181e-01   3.4673754e-01   3.4121026e-01   3.3561469e-01   3.2995334e-01   3.2422612e-01   3.1843802e-01   3.1259412e-01   3.0669942e-01   3.0075883e-01   2.9477719e-01   2.8875925e-01   2.8270968e-01   2.7663306e-01   2.7053390e-01   2.6441661e-01   2.5828554e-01   2.5214494e-01   2.4599898e-01   2.3985176e-01   2.3370727e-01   2.2756945e-01   2.2144213e-01   2.1532909e-01   2.0923398e-01   2.0316041e-01   1.9711189e-01   1.9109185e-01   1.8510363e-01   1.7915049e-01   1.7323563e-01   1.6736212e-01   1.6153300e-01   1.5575120e-01   1.5001956e-01   1.4434084e-01   1.3871775e-01   1.3315288e-01   1.2764874e-01   1.2220778e-01   1.1683235e-01   1.1152472e-01   1.0628708e-01   1.0112154e-01   9.6030118e-02   9.1014759e-02   8.6077321e-02   8.1219576e-02   7.6442240e-02   7.1745756e-02   6.7131102e-02   6.2599144e-02   5.8150631e-02   5.3786197e-02   4.9506363e-02   4.5311533e-02   4.1201998e-02   3.7177934e-02   3.3239402e-02   2.9386348e-02   2.5618658e-02   2.1937803e-02   1.8344196e-02   1.4837307e-02   1.1416597e-02   8.0814563e-03   4.8312043e-03   1.6651034e-03  -1.4176390e-03  -4.4819808e-03  -6.5802929e-03  -7.7253730e-03  -8.8739480e-03  -9.9923582e-03  -1.1081084e-02  -1.2140600e-02  -1.3171377e-02  -1.4173882e-02  -1.5148574e-02  -1.6095848e-02  -1.7015921e-02  -1.7909303e-02  -1.8776524e-02  -1.9618094e-02  -2.0434506e-02  -2.1226232e-02  -2.1993727e-02  -2.2737425e-02  -2.3457742e-02  -2.4155076e-02  -2.4829803e-02  -2.5482284e-02  -2.6112858e-02  -2.6721845e-02  -2.7309549e-02  -2.7876251e-02  -2.8422216e-02  -2.8947689e-02  -2.9452895e-02  -2.9938042e-02  -3.0403317e-02  -3.0848889e-02  -3.1274909e-02  -3.1681507e-02  -3.2068795e-02  -3.2436866e-02  -3.2785794e-02  -3.3115633e-02  -3.3426421e-02  -3.3718174e-02  -3.3990889e-02  -3.4244546e-02  -3.4479104e-02  -3.4694632e-02  -3.4891691e-02  -3.5069865e-02  -3.5228532e-02  -3.5367029e-02  -3.5484648e-02  -3.5580644e-02  -3.5654224e-02  -3.5704558e-02  -3.5730772e-02  -3.5731950e-02  -3.5707134e-02  -3.5655323e-02  -3.5575477e-02  -3.5466511e-02  -3.5327300e-02  -3.5156675e-02  -3.4953427e-02  -3.4716304e-02  -3.4444011e-02  -3.4135215e-02  -3.3788535e-02  -3.3402553e-02  -3.2975808e-02  -3.2506794e-02  -3.1993966e-02  -3.1435737e-02  -3.0830477e-02  -3.0176146e-02  -2.9468498e-02  -2.8705323e-02  -2.7884858e-02  -2.7005295e-02  -2.6064785e-02  -2.5061431e-02  -2.3993294e-02  -2.2858391e-02  -2.1654695e-02  -2.0380136e-02  -1.9032598e-02  -1.7609922e-02  -1.6109905e-02  -1.4530512e-02  -1.2873785e-02  -1.1139787e-02  -9.3273387e-03  -7.4355928e-03  -5.4640321e-03  -3.4124692e-03  -1.2810470e-03   9.2976126e-04   3.2191524e-03   5.5859930e-03   8.0288194e-03   1.0545838e-02   1.3134925e-02   1.5793625e-02   1.8519156e-02   2.1308402e-02   2.4157919e-02   2.7063932e-02   3.0022336e-02   3.3028696e-02   3.6078248e-02   3.9165894e-02   4.2286211e-02   4.5433441e-02   4.8601500e-02   5.1783972e-02   5.4974109e-02   5.8164836e-02   6.1348745e-02   6.4518101e-02   6.7664837e-02   7.0780555e-02   7.3856528e-02   7.6883698e-02   7.9852679e-02   8.2754240e-02   8.5588041e-02   8.8347239e-02   9.1021514e-02   9.3601088e-02   9.6076732e-02   9.8439760e-02   1.0068203e-01   1.0279596e-01   1.0477449e-01   1.0661113e-01   1.0829992e-01   1.0983545e-01   1.1121286e-01   1.1242782e-01   1.1347658e-01   1.1435590e-01   1.1506310e-01   1.1559605e-01   1.1595316e-01   1.1613339e-01   1.1613625e-01   1.1596178e-01   1.1561057e-01   1.1508378e-01   1.1438309e-01   1.1351073e-01   1.1246947e-01   1.1126266e-01   1.0989415e-01   1.0836836e-01   1.0669027e-01   1.0486536e-01   1.0289971e-01   1.0079879e-01   9.8559354e-02   9.6188672e-02   9.3697339e-02   9.1095716e-02   8.8393882e-02   8.5601635e-02   8.2728492e-02   7.9783689e-02   7.6776182e-02   7.3714646e-02   7.0607473e-02   6.7462776e-02   6.4288388e-02   6.1091858e-02   5.7880457e-02   5.4661174e-02   5.1440716e-02   4.8225511e-02   4.5021705e-02   4.1835164e-02   3.8671471e-02   3.5535930e-02   3.2433563e-02   2.9369113e-02   2.6347040e-02   2.3371524e-02   2.0446463e-02   1.7575476e-02   1.4761899e-02   1.2008789e-02   9.3189210e-03   6.6947892e-03   4.1386069e-03   1.6523068e-03  -7.6245978e-04  -3.1043221e-03  -5.3775942e-03  -7.5907228e-03  -9.7481460e-03  -1.1856039e-02  -1.3922337e-02  -1.5956730e-02  -1.7970670e-02  -1.9977365e-02  -2.1991781e-02  -2.4030643e-02  -2.6112436e-02  -2.8257399e-02  -3.0487532e-02  -3.2826593e-02  -3.5300099e-02  -3.7935315e-02  -4.0742374e-02  -4.3742906e-02  -4.6973265e-02  -5.0460276e-02  -5.4221239e-02  -5.8263923e-02  -6.2586573e-02  -6.7177903e-02  -7.2017101e-02  -7.7073827e-02  -8.2308213e-02  -8.7670864e-02  -9.3102856e-02  -9.8535738e-02  -1.0389153e-01  -1.0908351e-01  -1.1409233e-01  -1.1880645e-01  -1.2304400e-01  -1.2663259e-01  -1.2940931e-01  -1.3122078e-01  -1.3192310e-01  -1.3138187e-01  -1.2947218e-01  -1.2607862e-01  -1.2109529e-01  -1.1442578e-01  -1.0598315e-01  -9.5690011e-02  -8.3478425e-02  -6.9289972e-02  -5.3075726e-02  -3.4796255e-02  -1.4421629e-02   8.0685900e-03   3.2685339e-02   5.9430060e-02   8.8328271e-02   1.1928129e-01   1.5191538e-01   1.8584198e-01   2.2066851e-01   2.5599840e-01   2.9143110e-01   3.2656202e-01   3.6098260e-01   3.9428025e-01   4.2603840e-01   4.5583647e-01   4.8324988e-01   5.0785004e-01   5.2920437e-01   5.4687628e-01   5.6042517e-01   5.6940647e-01   5.7341688e-01   5.7241825e-01   5.6618949e-01   5.5470396e-01   5.3824121e-01   5.1732559e-01   4.9230237e-01   4.6364791e-01   4.3191161e-01   3.9768128e-01   3.6156807e-01   3.2417132e-01   2.8610744e-01   2.4794420e-01   2.1019603e-01   1.7332398e-01   1.3773575e-01   1.0378567e-01   7.1774710e-02   4.1950486e-02   1.4507248e-02  -1.0414113e-02  -3.2726070e-02  -5.2394454e-02  -6.9436383e-02  -8.3839565e-02  -9.5646438e-02  -1.0495139e-01  -1.1186306e-01  -1.1650429e-01  -1.1901218e-01  -1.1953806e-01  -1.1824748e-01  -1.1532023e-01  -1.1095033e-01  -1.0534606e-01  -9.8729881e-02  -9.1337903e-02  -8.3365089e-02  -7.4989411e-02  -6.6391269e-02  -5.7730723e-02  -4.9147491e-02  -4.0760951e-02  -3.2670140e-02  -2.4953754e-02  -1.7670149e-02  -1.0857339e-02  -4.5329989e-03   1.3055383e-03   6.6811078e-03   1.1603175e-02   1.6100122e-02   2.0223848e-02   2.4023518e-02   2.7545555e-02   3.0833648e-02   3.3926920e-02   3.6860331e-02   3.9669661e-02   4.2387906e-02   4.5045179e-02   4.7668716e-02   5.0282869e-02   5.2909114e-02   5.5566045e-02   5.8269376e-02   6.1031942e-02   6.3864021e-02   6.6777138e-02   6.9776568e-02   7.2865331e-02   7.6046145e-02   7.9321427e-02   8.2693291e-02   8.6163548e-02   8.9733711e-02   9.3404986e-02   9.7178281e-02   1.0105420e-01   1.0503305e-01   1.0911482e-01   1.1329922e-01   1.1758564e-01   1.2197319e-01   1.2646064e-01   1.3104650e-01   1.3572895e-01   1.4050588e-01   1.4537488e-01   1.5033323e-01   1.5537790e-01   1.6050559e-01   1.6571274e-01   1.7099770e-01   1.7635747e-01   1.8178789e-01   1.8728461e-01   1.9284305e-01   1.9845845e-01   2.0412583e-01   2.0984002e-01   2.1559563e-01   2.2138708e-01   2.2720858e-01   2.3305415e-01   2.3891758e-01   2.4479249e-01   2.5067227e-01   2.5655012e-01   2.6241903e-01   2.6827296e-01   2.7411096e-01   2.7992555e-01   2.8570815e-01   2.9145026e-01   2.9714351e-01   3.0277961e-01   3.0835036e-01   3.1384769e-01   3.1926362e-01   3.2459024e-01   3.2981979e-01   3.3494456e-01   3.3995699e-01   3.4484958e-01   3.4961494e-01   3.5424580e-01   3.5873497e-01   3.6307536e-01   3.6726000e-01   3.7128198e-01   3.7513454e-01   3.7881098e-01   3.8230591e-01   3.8561925e-01   3.8874571e-01   3.9167940e-01   3.9441480e-01   3.9694678e-01   3.9927058e-01   4.0138183e-01   4.0327651e-01   4.0495102e-01   4.0640211e-01   4.0762691e-01   4.0862294e-01   4.0938808e-01   4.0992061e-01   4.1021918e-01   4.1028282e-01   4.1011092e-01   4.0970328e-01   4.0906005e-01   4.0818178e-01   4.0706938e-01   4.0572416e-01   4.0414778e-01   4.0234231e-01   4.0030769e-01   3.9803873e-01   3.9554046e-01   3.9281896e-01   3.8988040e-01   3.8673108e-01   3.8337736e-01   3.7982574e-01   3.7608277e-01   3.7215514e-01   3.6804961e-01   3.6377307e-01   3.5933246e-01   3.5473487e-01   3.4998745e-01   3.4509747e-01   3.4007229e-01   3.3491936e-01   3.2964625e-01   3.2426061e-01   3.1876589e-01   3.1316596e-01   3.0746915e-01   3.0168362e-01   2.9581735e-01   2.8987821e-01   2.8387387e-01   2.7781187e-01   2.7169959e-01   2.6554426e-01   2.5935293e-01   2.5313252e-01   2.4688979e-01   2.4063133e-01   2.3436360e-01   2.2809288e-01   2.2182529e-01   2.1556683e-01   2.0932332e-01   2.0310041e-01   1.9690362e-01   1.9073831e-01   1.8460968e-01   1.7852276e-01   1.7248246e-01   1.6649349e-01   1.6056045e-01   1.5468774e-01   1.4887964e-01   1.4314026e-01   1.3747355e-01   1.3188332e-01   1.2637320e-01   1.2094668e-01   1.1560710e-01   1.1035763e-01   1.0520130e-01   1.0014096e-01   9.5179342e-02   9.0318983e-02   8.5562289e-02   8.0911278e-02   7.6354691e-02   7.1884100e-02   6.7504015e-02   6.3218486e-02   5.9031100e-02   5.4944984e-02   5.0962803e-02   4.7086761e-02   4.3318600e-02   3.9659602e-02   3.6110586e-02   3.2671911e-02   2.9343473e-02   2.6124709e-02   2.3014594e-02   2.0011713e-02   1.7412908e-02   1.5412521e-02   1.3892237e-02   1.2745393e-02   1.1876977e-02   1.1203627e-02   1.0653629e-02   1.0166922e-02   9.6950947e-03   9.2013852e-03   8.6606827e-03   8.0595265e-03   7.3961059e-03   6.6802609e-03   5.9334815e-03   5.1889082e-03   4.4721398e-03   3.7288887e-03   2.9437291e-03   2.1082749e-03   1.2137978e-03   2.5122720e-04  -7.8884988e-04  -1.9161887e-03  -3.1408869e-03  -4.4733844e-03  -5.9244633e-03  -7.5052483e-03  -9.2272062e-03  -1.1102102e-02  -1.3141672e-02  -1.5358473e-02  -1.7765503e-02  -2.0376048e-02  -2.3203680e-02  -2.6257573e-02  -2.9534729e-02  -3.3032033e-02  -3.6743137e-02  -4.0658324e-02  -4.4764503e-02  -4.9045215e-02  -5.3480626e-02  -5.8047534e-02  -6.2719363e-02  -6.7466168e-02  -7.2254630e-02  -7.7048062e-02  -8.1806402e-02  -8.6486220e-02  -9.1040713e-02  -9.5419706e-02  -9.9569655e-02  -1.0343364e-01  -1.0695138e-01  -1.1005921e-01  -1.1269010e-01  -1.1477365e-01  -1.1623608e-01  -1.1700025e-01  -1.1698565e-01  -1.1610839e-01  -1.1428120e-01  -1.1147234e-01  -1.0772308e-01  -1.0292164e-01  -9.6959591e-02  -8.9739936e-02  -8.1177102e-02  -7.1196945e-02  -5.9736750e-02  -4.6745229e-02  -3.2182522e-02  -1.6020196e-02   1.7587521e-03   2.1159900e-02   4.2177397e-02   6.4793964e-02   8.8980893e-02   1.1469805e-01   1.4189387e-01   1.7050552e-01   2.0045693e-01   2.3165932e-01   2.6401205e-01   2.9740269e-01   3.3170699e-01   3.6678887e-01   4.0250044e-01   4.3868198e-01   4.7516199e-01   5.1178157e-01   5.4835434e-01   5.8453189e-01   6.1997538e-01   6.5436701e-01   6.8741001e-01   7.1882863e-01   7.4836817e-01   7.7579496e-01   8.0089634e-01   8.2348070e-01   8.4337746e-01   8.6043707e-01   8.7453100e-01   8.8555178e-01   8.9341294e-01   8.9804905e-01   8.9941573e-01   8.9748961e-01   8.9226836e-01   8.8377068e-01   8.7203629e-01   8.5704970e-01   8.3894528e-01   8.1800307e-01   7.9449604e-01   7.6869002e-01   7.4084376e-01   7.1120888e-01   6.8002990e-01   6.4754426e-01   6.1398224e-01   5.7956706e-01   5.4451482e-01   5.0904022e-01   4.7336202e-01   4.3768563e-01   4.0221000e-01   3.6712780e-01   3.3262547e-01   2.9888320e-01   2.6607493e-01   2.3436837e-01   2.0392121e-01   1.7481136e-01   1.4707896e-01   1.2076428e-01   9.5901018e-02   7.2516371e-02   5.0631000e-02   3.0259035e-02   1.1408079e-02  -5.9207914e-03  -2.1733032e-02  -3.6040624e-02  -4.8862079e-02  -6.0222438e-02  -7.0153267e-02  -7.8692666e-02  -8.5885258e-02  -9.1782198e-02  -9.6441170e-02  -9.9926384e-02  -1.0230858e-01  -1.0366503e-01  -1.0407953e-01  -1.0364240e-01  -1.0245050e-01  -1.0059732e-01  -9.8122530e-02  -9.5135846e-02  -9.1724456e-02  -8.7964038e-02  -8.3926135e-02  -7.9678156e-02  -7.5283372e-02  -7.0800917e-02  -6.6285789e-02  -6.1788853e-02  -5.7356833e-02  -5.3032321e-02  -4.8853770e-02  -4.4855498e-02  -4.1067686e-02  -3.7516380e-02  -3.4223490e-02  -3.1206787e-02  -2.8479910e-02  -2.6052358e-02  -2.3929496e-02  -2.2112553e-02  -2.0598619e-02  -1.9380652e-02  -1.8447471e-02  -1.7783808e-02  -1.7397386e-02  -1.7303385e-02  -1.7502167e-02  -1.7996269e-02  -1.8790411e-02  -1.9891489e-02  -2.1304040e-02  -2.3047381e-02  -2.5152819e-02  -2.7641319e-02  -3.0523293e-02  -3.3798601e-02  -3.7456554e-02  -4.1475908e-02  -4.5824870e-02  -5.0461094e-02  -5.5331684e-02  -6.0373188e-02  -6.5511609e-02  -7.0662392e-02  -7.5737841e-02  -8.0605773e-02  -8.5107090e-02  -8.9083855e-02  -9.2379299e-02  -9.4837814e-02  -9.6304960e-02  -9.6627460e-02  -9.5653199e-02  -9.3231229e-02  -8.9211768e-02  -8.3446192e-02  -7.5779427e-02  -6.6055856e-02  -5.4210378e-02  -4.0137899e-02  -2.3714809e-02  -4.8670286e-03   1.6429993e-02   4.0151276e-02   6.6222310e-02   9.4519057e-02   1.2486795e-01   1.5704588e-01   1.9078022e-01   2.2574882e-01   2.6158049e-01   2.9787423e-01   3.3404323e-01   3.6944585e-01   4.0346439e-01   4.3550502e-01   4.6499782e-01   4.9139676e-01   5.1417973e-01   5.3284849e-01   5.4692874e-01   5.5608633e-01   5.6004731e-01   5.5818057e-01   5.5000416e-01   5.3579202e-01   5.1600928e-01   4.9120772e-01   4.6200978e-01   4.2945289e-01   3.9453396e-01   3.5816916e-01   3.2119390e-01   2.8436284e-01   2.4834992e-01   2.1374830e-01   1.8106986e-01   1.5074556e-01   1.2312650e-01   9.8482995e-02   7.7004909e-02   5.8773797e-02   4.3763966e-02   3.1911093e-02   2.3117711e-02   1.7253203e-02   1.4153806e-02   1.3622609e-02   1.5429556e-02   1.9311441e-02   2.4971913e-02   3.2081472e-02   4.0296475e-02   4.9350249e-02   5.8949981e-02   6.8827748e-02   7.8751227e-02   8.8523696e-02   9.7984030e-02   1.0700670e-01   1.1550179e-01   1.2341495e-01   1.3072748e-01   1.3745623e-01   1.4363828e-01   1.4929535e-01   1.5449759e-01   1.5931479e-01   1.6381160e-01   1.6804752e-01   1.7207692e-01   1.7594903e-01   1.7970795e-01   1.8339263e-01   1.8703686e-01   1.9066933e-01   1.9431357e-01   1.9798797e-01   2.0170578e-01   2.0547511e-01   2.0930539e-01   2.1320547e-01   2.1717719e-01   2.2122213e-01   2.2534161e-01   2.2953670e-01   2.3380823e-01   2.3815677e-01   2.4258265e-01   2.4708592e-01   2.5166642e-01   2.5632371e-01   2.6105711e-01   2.6586569e-01   2.7074825e-01   2.7570337e-01   2.8072936e-01   2.8582572e-01   2.9099168e-01   2.9622423e-01   3.0152020e-01   3.0687620e-01   3.1228864e-01   3.1775372e-01   3.2326743e-01   3.2882558e-01   3.3442375e-01   3.4005734e-01   3.4572153e-01   3.5141130e-01   3.5712144e-01   3.6284651e-01   3.6858088e-01   3.7431874e-01   3.8005403e-01   3.8578052e-01   3.9149176e-01   3.9718112e-01   4.0284173e-01   4.0846655e-01   4.1404832e-01   4.1957958e-01   4.2505265e-01   4.3045969e-01   4.3579808e-01   4.4106906e-01   4.4626325e-01   4.5137135e-01   4.5638436e-01   4.6129358e-01   4.6609061e-01   4.7076737e-01   4.7531610e-01   4.7972932e-01   4.8399988e-01   4.8812091e-01   4.9208588e-01   4.9588854e-01   4.9952296e-01   5.0298352e-01   5.0626491e-01   5.0936211e-01   5.1227041e-01   5.1498544e-01   5.1750308e-01   5.1981958e-01   5.2193145e-01   5.2383552e-01   5.2552894e-01   5.2700916e-01   5.2827393e-01   5.2932131e-01   5.3014968e-01   5.3075771e-01   5.3114438e-01   5.3130899e-01   5.3125114e-01   5.3097073e-01   5.3046757e-01   5.2974249e-01   5.2879738e-01   5.2763443e-01   5.2625608e-01   5.2465908e-01   5.2284481e-01   5.2081924e-01   5.1858831e-01   5.1615799e-01   5.1353423e-01   5.1072298e-01   5.0773018e-01   5.0456180e-01   5.0122378e-01   4.9772206e-01   4.9406260e-01   4.9025133e-01   4.8629420e-01   4.8219716e-01   4.7796614e-01   4.7360709e-01   4.6912594e-01   4.6452863e-01   4.5982109e-01   4.5500927e-01   4.5009909e-01   4.4509649e-01   4.4000740e-01   4.3483775e-01   4.2959347e-01   4.2428048e-01   4.1890471e-01   4.1347209e-01   4.0798854e-01   4.0245999e-01   3.9689235e-01   3.9129154e-01   3.8566349e-01   3.8001411e-01   3.7434932e-01   3.6867503e-01   3.6299716e-01   3.5732162e-01   3.5165118e-01   3.4598731e-01   3.4033386e-01   3.3469447e-01   3.2907266e-01   3.2347174e-01   3.1789490e-01   3.1234512e-01   3.0682525e-01   3.0133796e-01   2.9588574e-01   2.9047094e-01   2.8509573e-01   2.7976211e-01   2.7447193e-01   2.6924515e-01   2.6447649e-01   2.6022750e-01   2.5637851e-01   2.5282343e-01   2.4946977e-01   2.4623859e-01   2.4306456e-01   2.3989595e-01   2.3669456e-01   2.3343584e-01   2.3010877e-01   2.2671595e-01   2.2327354e-01   2.1980955e-01   2.1636324e-01   2.1297751e-01   2.0961064e-01   2.0625215e-01   2.0290350e-01   1.9956617e-01   1.9624164e-01   1.9293138e-01   1.8963688e-01   1.8635962e-01   1.8310107e-01   1.7986273e-01   1.7664607e-01   1.7345258e-01   1.7028376e-01   1.6714109e-01   1.6402567e-01   1.6093195e-01   1.5786038e-01   1.5481446e-01   1.5179768e-01   1.4881349e-01   1.4586529e-01   1.4295649e-01   1.4009044e-01   1.3727047e-01   1.3449988e-01   1.3178195e-01   1.2911990e-01   1.2651696e-01   1.2397630e-01   1.2150107e-01   1.1909440e-01   1.1675937e-01   1.1449905e-01   1.1231647e-01   1.1021463e-01   1.0819649e-01   1.0626502e-01   1.0442310e-01   1.0267364e-01   1.0101948e-01   9.9463435e-02   9.8008309e-02   9.6656863e-02   9.5411829e-02   9.4275910e-02   9.3251780e-02   9.2342082e-02   9.1549431e-02   9.0876410e-02   9.0325573e-02   8.9899446e-02   8.9600522e-02   8.9431267e-02   8.9394114e-02   8.9491469e-02   8.9725708e-02   9.0099176e-02   9.0614187e-02   9.1273029e-02   9.2084576e-02   9.3079264e-02   9.4246407e-02   9.5568731e-02   9.7028462e-02   9.8608257e-02   1.0029120e-01   1.0206082e-01   1.0390105e-01   1.0579627e-01   1.0773130e-01   1.0969136e-01   1.1166213e-01   1.1362970e-01   1.1558061e-01   1.1750180e-01   1.1938067e-01   1.2120503e-01   1.2296314e-01   1.2464367e-01   1.2623572e-01   1.2772884e-01   1.2911300e-01   1.3037859e-01   1.3151645e-01   1.3251782e-01   1.3337441e-01   1.3407832e-01   1.3462211e-01   1.3499875e-01   1.3520166e-01   1.3522467e-01   1.3506206e-01   1.3470851e-01   1.3415917e-01   1.3340958e-01   1.3245575e-01   1.3129408e-01   1.2992143e-01   1.2833508e-01   1.2653274e-01   1.2451254e-01   1.2226783e-01   1.1980659e-01   1.1715135e-01   1.1432381e-01   1.1134474e-01   1.0823406e-01   1.0501078e-01   1.0169300e-01   9.8297967e-02   9.4842008e-02   9.1340573e-02   8.7808219e-02   8.4258612e-02   8.0704526e-02   7.7157847e-02   7.3629569e-02   7.0129794e-02   6.6667735e-02   6.3251715e-02   5.9889165e-02   5.6586626e-02   5.3349749e-02   5.0183292e-02   4.7091126e-02   4.4076227e-02   4.1140685e-02   3.8285697e-02   3.5511568e-02   3.2817715e-02   3.0202664e-02   2.7664049e-02   2.5198613e-02   2.2802211e-02   2.0469806e-02   1.8195469e-02   1.5974189e-02   1.3814524e-02   1.1654997e-02   9.4205069e-03   7.0458601e-03   4.4757707e-03   1.6648621e-03  -1.4223335e-03  -4.8113747e-03  -8.5179114e-03  -1.2547685e-02  -1.6896526e-02  -2.1550359e-02  -2.6485197e-02  -3.1667147e-02  -3.7052403e-02  -4.2587625e-02  -4.8219764e-02  -5.3747513e-02  -5.8914875e-02  -6.3474160e-02  -6.7185989e-02  -6.9819294e-02  -7.1151314e-02  -7.0967602e-02  -6.9062019e-02  -6.5236737e-02  -5.9302235e-02  -5.1077307e-02  -4.0389053e-02  -2.7072886e-02  -1.0972526e-02   8.0599949e-03   3.0097366e-02   5.5024728e-02   8.2656183e-02   1.1272144e-01   1.4486556e-01   1.7864899e-01   2.1354750e-01   2.4895225e-01   2.8416977e-01   3.1842192e-01   3.5084596e-01   3.8049447e-01   4.0633543e-01   4.2740583e-01   4.4318636e-01   4.5314547e-01   4.5690518e-01   4.5323518e-01   4.4082391e-01   4.2084881e-01   3.9468778e-01   3.6327048e-01   3.2805366e-01   2.9057442e-01   2.5232154e-01   2.1462125e-01   1.7859481e-01   1.4515846e-01   1.1502347e-01   8.8696078e-02   6.6477550e-02   4.8464146e-02   3.4566896e-02   2.4884238e-02   1.9064183e-02   1.6572337e-02   1.6898309e-02   1.9555718e-02   2.4082186e-02   3.0039345e-02   3.7012833e-02   4.4612294e-02   5.2471379e-02   6.0247746e-02   6.7623059e-02   7.4302990e-02   8.0039663e-02   8.4871705e-02   8.8923732e-02   9.2300332e-02   9.5100563e-02   9.7417953e-02   9.9340502e-02   1.0095068e-01   1.0232542e-01   1.0353614e-01   1.0464874e-01   1.0572359e-01   1.0681286e-01   1.0793825e-01   1.0910830e-01   1.1033111e-01   1.1161393e-01   1.1296317e-01   1.1438436e-01   1.1588219e-01   1.1746050e-01   1.1912227e-01   1.2086964e-01   1.2270386e-01   1.2462537e-01   1.2663373e-01   1.2872764e-01   1.3090497e-01   1.3316272e-01   1.3549825e-01   1.3791658e-01   1.4041460e-01   1.4298687e-01   1.4562777e-01   1.4833147e-01   1.5109197e-01   1.5390308e-01   1.5675839e-01   1.5965135e-01   1.6257516e-01   1.6552289e-01   1.6848738e-01   1.7146129e-01   1.7443710e-01   1.7740708e-01   1.8036333e-01   1.8329775e-01   1.8620204e-01   1.8906774e-01   1.9188617e-01   1.9464847e-01   1.9734559e-01   1.9996830e-01   2.0250716e-01   2.0495255e-01   2.0729467e-01   2.0952352e-01   2.1162890e-01   2.1360044e-01   2.1542756e-01   2.1709960e-01   2.1861192e-01   2.1996079e-01   2.2114050e-01   2.2214597e-01   2.2297281e-01   2.2361724e-01   2.2407615e-01   2.2434709e-01   2.2442824e-01   2.2431846e-01   2.2401722e-01   2.2352468e-01   2.2284164e-01   2.2196953e-01   2.2091046e-01   2.1966717e-01   2.1824307e-01   2.1664220e-01   2.1486927e-01   2.1292963e-01   2.1082928e-01   2.0857488e-01   2.0617373e-01   2.0363380e-01   2.0096368e-01   1.9817264e-01   1.9527059e-01   1.9226809e-01   1.8917635e-01   1.8600723e-01   1.8277325e-01   1.7948758e-01   1.7616402e-01   1.7281689e-01   1.6944774e-01   1.6605972e-01   1.6266263e-01   1.5926583e-01   1.5587823e-01   1.5250829e-01   1.4916403e-01   1.4585303e-01   1.4258239e-01   1.3935881e-01   1.3618852e-01   1.3307729e-01   1.3003047e-01   1.2705294e-01   1.2414915e-01   1.2132311e-01   1.1857835e-01   1.1590697e-01   1.1319310e-01   1.1047484e-01   1.0783148e-01   1.0533055e-01   1.0302787e-01   1.0096746e-01   9.9181622e-02   9.7690911e-02   9.6504126e-02   9.5618318e-02   9.5018794e-02   9.4679109e-02   9.4561073e-02   9.4614968e-02   9.4779719e-02   9.4982536e-02   9.5138884e-02   9.5183587e-02   9.5219168e-02   9.5266866e-02   9.5327554e-02   9.5402199e-02   9.5491866e-02   9.5597715e-02   9.5721004e-02   9.5863088e-02   9.6025417e-02   9.6209538e-02   9.6417095e-02   9.6649828e-02   9.6909574e-02   9.7198266e-02   9.7517935e-02   9.7863952e-02   9.8223666e-02   9.8605157e-02   9.9017385e-02   9.9469058e-02   9.9968628e-02   1.0052430e-01   1.0114401e-01   1.0183547e-01   1.0260611e-01   1.0346312e-01   1.0441344e-01   1.0546375e-01   1.0662047e-01   1.0788978e-01   1.0927761e-01   1.1078963e-01   1.1243125e-01   1.1420763e-01   1.1612368e-01   1.1818407e-01   1.2039319e-01   1.2275520e-01   1.2527399e-01   1.2795321e-01   1.3079625e-01   1.3380625e-01   1.3698609e-01   1.4033840e-01   1.4386557e-01   1.4756971e-01   1.5145271e-01   1.5551617e-01   1.5976148e-01   1.6418943e-01   1.6881698e-01   1.7365502e-01   1.7866572e-01   1.8381184e-01   1.8905780e-01   1.9436967e-01   1.9971513e-01   2.0506353e-01   2.1038587e-01   2.1565477e-01   2.2084449e-01   2.2593096e-01   2.3089173e-01   2.3570600e-01   2.4035461e-01   2.4482004e-01   2.4908643e-01   2.5313954e-01   2.5696677e-01   2.6055720e-01   2.6390151e-01   2.6699204e-01   2.6982278e-01   2.7238934e-01   2.7468900e-01   2.7672067e-01   2.7848489e-01   2.7998387e-01   2.8122143e-01   2.8220307e-01   2.8293508e-01   2.8340585e-01   2.8363882e-01   2.8367210e-01   2.8354095e-01   2.8327777e-01   2.8291208e-01   2.8247058e-01   2.8197707e-01   2.8145252e-01   2.8091502e-01   2.8037981e-01   2.7985928e-01   2.7936295e-01   2.7889747e-01   2.7846665e-01   2.7807144e-01   2.7770991e-01   2.7737730e-01   2.7706596e-01   2.7676541e-01   2.7646228e-01   2.7614038e-01   2.7578071e-01   2.7536777e-01   2.7488235e-01   2.7429930e-01   2.7363892e-01   2.7285575e-01   2.7175556e-01   2.7018586e-01   2.6803946e-01   2.6525447e-01   2.6181429e-01   2.5774766e-01   2.5312860e-01   2.4807644e-01   2.4275581e-01   2.3737666e-01   2.3219422e-01   2.2750904e-01   2.2366699e-01   2.2093086e-01   2.1938202e-01   2.1977806e-01   2.2280209e-01   2.2898431e-01   2.3870200e-01   2.5217953e-01   2.6948836e-01   2.9054703e-01   3.1512116e-01   3.4282347e-01   3.7311375e-01   4.0529891e-01   4.3853290e-01   4.7181680e-01   5.0397241e-01   5.3332728e-01   5.5826564e-01   5.7737339e-01   5.8943582e-01   5.9359093e-01   5.8777263e-01   5.7097697e-01   5.4446489e-01   5.1017346e-01   4.7115231e-01   4.3025567e-01   3.8987196e-01   3.5193259e-01   3.1790706e-01   2.8880263e-01   2.6521178e-01   2.4805758e-01   2.3671720e-01   2.3007481e-01   2.2711529e-01   2.2692423e-01   2.2868795e-01   2.3169345e-01   2.3532846e-01   2.3908142e-01   2.4254147e-01   2.4539848e-01   2.4744301e-01   2.4856634e-01   2.4876045e-01   2.4812777e-01   2.4705804e-01   2.4573782e-01   2.4422986e-01   2.4259226e-01   2.4087850e-01   2.3913742e-01   2.3741324e-01   2.3574553e-01   2.3416925e-01   2.3271471e-01   2.3140759e-01   2.3026896e-01   2.2931522e-01   2.2855818e-01   2.2800499e-01   2.2765817e-01   2.2751562e-01   2.2757060e-01   2.2781174e-01   2.2822071e-01   2.2875933e-01   2.2940177e-01   2.3012852e-01   2.3097336e-01   2.3193356e-01   2.3299370e-01   2.3413835e-01   2.3535207e-01   2.3661940e-01   2.3792485e-01   2.3925293e-01   2.4058812e-01   2.4191488e-01   2.4321767e-01   2.4448091e-01   2.4568902e-01   2.4682640e-01   2.4787743e-01   2.4882646e-01   2.4965784e-01   2.5035590e-01   2.5090495e-01   2.5128927e-01   2.5149314e-01   2.5150082e-01   2.5129583e-01   2.5086360e-01   2.5020154e-01   2.4930883e-01   2.4818524e-01   2.4683111e-01   2.4524734e-01   2.4343541e-01   2.4139739e-01   2.3913590e-01   2.3665413e-01   2.3395586e-01   2.3104544e-01   2.2792777e-01   2.2460836e-01   2.2109326e-01   2.1738910e-01   2.1350310e-01   2.0944303e-01   2.0521725e-01   2.0083467e-01   1.9630480e-01   1.9163771e-01   1.8684403e-01   1.8193498e-01   1.7692235e-01   1.7174776e-01   1.6635777e-01   1.6079342e-01   1.5509069e-01   1.4928032e-01   1.4338780e-01   1.3743860e-01   1.3146032e-01   1.2547501e-01   1.1950357e-01   1.1356574e-01   1.0768008e-01   1.0186400e-01   9.6133761e-02   9.0504447e-02   8.4989991e-02   7.9603164e-02   7.4355576e-02   6.9257679e-02   6.4318763e-02   5.9546958e-02   5.4949235e-02   5.0531404e-02   4.6298116e-02   4.2252859e-02   3.8423223e-02   3.4979056e-02   3.2009499e-02   2.9588108e-02   2.7792942e-02   2.6706569e-02   2.6416060e-02   2.6949899e-02   2.8322011e-02   3.0645510e-02   3.4025883e-02   3.8559947e-02   4.4335848e-02   5.1433060e-02   5.9922383e-02   6.9865949e-02   8.1317215e-02   9.4320967e-02   1.0891332e-01   1.2512172e-01   1.4296493e-01   1.6245306e-01   1.8359948e-01   2.0641071e-01   2.3086218e-01   2.5691748e-01   2.8452854e-01   3.1363561e-01   3.4416727e-01   3.7604045e-01   4.0916039e-01   4.4342067e-01   4.7870321e-01   5.1498335e-01   5.5216044e-01   5.8984371e-01   6.2765321e-01   6.6522480e-01   7.0221010e-01   7.3827649e-01   7.7310717e-01   8.0640106e-01   8.3787290e-01   8.6725319e-01   8.9428819e-01   9.1873996e-01   9.4038632e-01   9.5902088e-01   9.7445300e-01   9.8650785e-01   9.9502874e-01   9.9992983e-01   1.0011804e+00   9.9876576e-01   9.9268911e-01   9.8297163e-01   9.6965239e-01   9.5278842e-01   9.3245453e-01   9.0876579e-01   8.8202726e-01   8.5259496e-01   8.2081391e-01   7.8701821e-01   7.5153095e-01   7.1466427e-01   6.7671935e-01   6.3798639e-01   5.9874461e-01   5.5926229e-01   5.1979620e-01   4.8055730e-01   4.4169940e-01   4.0335637e-01   3.6564414e-01   3.2866072e-01   2.9248617e-01   2.5718263e-01   2.2279430e-01   1.8934747e-01   1.5685046e-01   1.2529370e-01   9.4601926e-02   6.4886549e-02   3.6842139e-02   1.1153613e-02  -1.1529341e-02  -3.0592166e-02  -4.5455440e-02  -5.5574870e-02  -6.0441298e-02  -5.9580697e-02  -5.2554174e-02  -3.8957968e-02  -1.8583047e-02   7.7099433e-03   3.8636067e-02   7.2436645e-02   1.0683778e-01   1.3905080e-01   1.6611986e-01   1.8555709e-01   1.9552063e-01   1.9331550e-01   1.7788391e-01   1.5262305e-01   1.2244221e-01   9.1655301e-02   6.3900492e-02   4.2102875e-02   2.7625942e-02   2.0480782e-02   2.0239430e-02   2.6060356e-02   3.6701523e-02   5.0520374e-02   6.5496905e-02   8.0065386e-02   9.3575268e-02   1.0562435e-01   1.1602477e-01   1.2480298e-01   1.3219978e-01   1.3867030e-01   1.4463469e-01   1.5015157e-01   1.5530686e-01   1.6017379e-01   1.6481281e-01   1.6927158e-01   1.7358497e-01   1.7777508e-01   1.8185270e-01   1.8585082e-01   1.8980619e-01   1.9374956e-01   1.9767395e-01   2.0157286e-01   2.0544732e-01   2.0929534e-01   2.1311202e-01   2.1688947e-01   2.2061686e-01   2.2428039e-01   2.2786330e-01   2.3134589e-01   2.3470547e-01   2.3791641e-01   2.4095013e-01   2.4378930e-01   2.4642129e-01   2.4881542e-01   2.5094470e-01   2.5278604e-01   2.5432021e-01   2.5553189e-01   2.5640964e-01   2.5694588e-01   2.5713695e-01   2.5698304e-01   2.5648826e-01   2.5566056e-01   2.5451181e-01   2.5305776e-01   2.5132337e-01   2.4934033e-01   2.4714053e-01   2.4476041e-01   2.4224093e-01   2.3960981e-01   2.3688239e-01   2.3409381e-01   2.3127707e-01   2.2846284e-01   2.2567947e-01   2.2295296e-01   2.2030697e-01   2.1776284e-01   2.1533957e-01   2.1305381e-01   2.1091990e-01   2.0890837e-01   2.0692493e-01   2.0509588e-01   2.0353894e-01   2.0233994e-01   2.0155276e-01   2.0119939e-01   2.0126988e-01   2.0172240e-01   2.0248316e-01   2.0344650e-01   2.0447481e-01   2.0541164e-01   2.0632547e-01   2.0727094e-01   2.0824829e-01   2.0925913e-01   2.1030644e-01   2.1139457e-01   2.1252925e-01   2.1371757e-01   2.1496802e-01   2.1629031e-01   2.1769466e-01   2.1919358e-01   2.2078994e-01   2.2245136e-01   2.2422532e-01   2.2616386e-01   2.2831067e-01   2.3070103e-01   2.3336182e-01   2.3631155e-01   2.3956032e-01   2.4310983e-01   2.4695342e-01   2.5107599e-01   2.5545409e-01   2.6005586e-01   2.6484104e-01   2.6976098e-01   2.7475865e-01   2.7976861e-01   2.8471705e-01   2.8952175e-01   2.9409208e-01   2.9832375e-01   3.0214070e-01   3.0551204e-01   3.0841686e-01   3.1084367e-01   3.1279047e-01   3.1426470e-01   3.1528323e-01   3.1587240e-01   3.1606802e-01   3.1591531e-01   3.1546897e-01   3.1479315e-01   3.1396144e-01   3.1305690e-01   3.1217202e-01   3.1140877e-01   3.1087539e-01   3.1057601e-01   3.1050857e-01   3.1067561e-01   3.1104268e-01   3.1153830e-01   3.1205398e-01   3.1244423e-01   3.1252656e-01   3.1208144e-01   3.1085236e-01   3.0829859e-01   3.0485139e-01   3.0181453e-01   3.0038720e-01   3.0166163e-01   3.0662314e-01   3.1615012e-01   3.3101403e-01   3.5187939e-01   3.7930520e-01   4.1332136e-01   4.5117995e-01   4.8907812e-01   5.2266416e-01   5.4742708e-01   5.6210769e-01   5.5534545e-01   5.2509478e-01   4.8430990e-01   4.4986192e-01   4.2120300e-01   4.0141141e-01   3.9138733e-01   3.9051438e-01   3.9603032e-01   4.0509045e-01   4.1541088e-01   4.2526860e-01   4.3350140e-01   4.3977639e-01   4.4470154e-01   4.4881012e-01   4.5252120e-01   4.5614020e-01   4.5985885e-01   4.6375522e-01   4.6779424e-01   4.7195353e-01   4.7627133e-01   4.8074699e-01   4.8537370e-01   4.9013852e-01   4.9502238e-01   5.0000007e-01   5.0504026e-01   5.1010546e-01   5.1515206e-01   5.2013032e-01   5.2499166e-01   5.2971595e-01   5.3422961e-01   5.3845780e-01   5.4233563e-01   5.4580818e-01   5.4883052e-01   5.5136766e-01   5.5339459e-01   5.5489627e-01   5.5586762e-01   5.5631352e-01   5.5624883e-01   5.5569839e-01   5.5469696e-01   5.5328932e-01   5.5151987e-01   5.4940117e-01   5.4699535e-01   5.4436691e-01   5.4157469e-01   5.3867179e-01   5.3570533e-01   5.3271798e-01   5.2974696e-01   5.2682384e-01   5.2397453e-01   5.2121931e-01   5.1857278e-01   5.1604391e-01   5.1363600e-01   5.1141416e-01   5.0962420e-01   5.0819710e-01   5.0703694e-01   5.0605903e-01   5.0518998e-01   5.0436762e-01   5.0354107e-01   5.0267071e-01   5.0172816e-01   5.0069631e-01   4.9956934e-01   4.9835264e-01   4.9706290e-01   4.9572805e-01   4.9438730e-01   4.9309110e-01   4.9190118e-01   4.9084836e-01   4.8994588e-01   4.8924230e-01   4.8877018e-01   4.8854585e-01   4.8856942e-01   4.8882480e-01   4.8927967e-01   4.8988551e-01   4.9057758e-01   4.9127493e-01   4.9188038e-01   4.9228055e-01   4.9234584e-01   4.9193044e-01   4.9087231e-01   4.8894947e-01   4.8599279e-01   4.8217814e-01   4.7768581e-01   4.7267709e-01   4.6729423e-01   4.6166049e-01   4.5588007e-01   4.5003821e-01   4.4420108e-01   4.3841586e-01   4.3271071e-01   4.2709476e-01   4.2155815e-01   4.1607197e-01   4.1058832e-01   4.0504003e-01   3.9910919e-01   3.9216725e-01   3.8409209e-01   3.7537711e-01   3.6713127e-01   3.6107912e-01   3.5955993e-01   3.6459357e-01   3.7817994e-01   4.0092536e-01   4.3076684e-01   4.6297205e-01   4.9022460e-01   5.0441209e-01
